t1,ch1,t2,ch2
-3.75,0.03612059020996094,-3.749999875,-0.0005636672973632813
-3.745,0.02812156677246094,-3.744999875,-0.03463422393798828
-3.74,0.02712168884277344,-3.739999875,-0.04164875030517578
-3.735,0.03212107849121094,-3.7349998749999997,-0.05066742706298828
-3.73,0.02812156677246094,-3.729999875,-0.09375666046142578
-3.725,0.03412083435058594,-3.724999875,-0.11179401397705077
-3.72,0.03112120056152344,-3.719999875,-0.11880854034423828
-3.715,0.03212107849121094,-3.7149998749999997,-0.13885004425048827
-3.71,0.02812156677246094,-3.709999875,-0.16690814971923829
-3.705,0.03812034606933594,-3.704999875,-0.16690814971923829
-3.7,0.03112120056152344,-3.699999875,-0.16690814971923829
-3.6950000000000003,0.02812156677246094,-3.694999875,-0.18694965362548827
-3.69,0.03312095642089844,-3.689999875,-0.18494550323486328
-3.685,0.02912144470214844,-3.684999875,-0.18494550323486328
-3.68,0.02912144470214844,-3.679999875,-0.18995587921142576
-3.6750000000000003,0.02912144470214844,-3.674999875,-0.19596833038330078
-3.67,0.03012132263183594,-3.669999875,-0.17893305206298826
-3.665,0.03612059020996094,-3.664999875,-0.17993512725830077
-3.66,0.03412083435058594,-3.659999875,-0.1859475784301758
-3.6550000000000002,0.03112120056152344,-3.654999875,-0.16590607452392578
-3.65,0.03112120056152344,-3.649999875,-0.15889154815673828
-3.645,0.03012132263183594,-3.644999875,-0.16690814971923829
-3.64,0.03112120056152344,-3.639999875,-0.16089569854736327
-3.6350000000000002,0.03012132263183594,-3.634999875,-0.15388117218017577
-3.63,0.03112120056152344,-3.6299998749999998,-0.15488324737548828
-3.625,0.03412083435058594,-3.624999875,-0.15588532257080076
-3.62,0.03312095642089844,-3.619999875,-0.13784796905517577
-3.615,0.03212107849121094,-3.614999875,-0.13985211944580078
-3.61,0.03612059020996094,-3.6099998749999997,-0.14786872100830079
-3.605,0.03612059020996094,-3.604999875,-0.13985211944580078
-3.6,0.02812156677246094,-3.599999875,-0.13784796905517577
-3.595,0.03312095642089844,-3.594999875,-0.14285834503173828
-3.59,0.02912144470214844,-3.5899998749999997,-0.1368458938598633
-3.585,0.03512071228027344,-3.584999875,-0.13183551788330078
-3.58,0.02912144470214844,-3.579999875,-0.13985211944580078
-3.575,0.023122177124023438,-3.574999875,-0.14486249542236326
-3.5700000000000003,0.03212107849121094,-3.569999875,-0.12682514190673827
-3.565,0.04012010192871094,-3.564999875,-0.13383966827392577
-3.56,0.03112120056152344,-3.559999875,-0.1518770217895508
-3.555,0.03412083435058594,-3.554999875,-0.13484174346923827
-3.5500000000000003,0.02812156677246094,-3.549999875,-0.13383966827392577
-3.545,0.03312095642089844,-3.544999875,-0.14285834503173828
-3.54,0.02912144470214844,-3.539999875,-0.13584381866455078
-3.535,0.03512071228027344,-3.534999875,-0.11680438995361328
-3.5300000000000002,0.03012132263183594,-3.529999875,-0.12381891632080078
-3.525,0.02412205505371094,-3.524999875,-0.13183551788330078
-3.52,0.03112120056152344,-3.519999875,-0.11680438995361328
-3.515,0.03112120056152344,-3.514999875,-0.11580231475830077
-3.5100000000000002,0.03412083435058594,-3.509999875,-0.12482099151611327
-3.505,0.03012132263183594,-3.5049998749999998,-0.11880854034423828
-3.5,0.03512071228027344,-3.499999875,-0.10177326202392578
-3.495,0.03812034606933594,-3.494999875,-0.11480023956298828
-3.49,0.03112120056152344,-3.489999875,-0.10978986358642577
-3.485,0.02812156677246094,-3.4849998749999997,-0.09676288604736327
-3.48,0.03412083435058594,-3.479999875,-0.10778571319580077
-3.475,0.02912144470214844,-3.474999875,-0.11780646514892577
-3.47,0.02412205505371094,-3.469999875,-0.10377741241455078
-3.465,0.03112120056152344,-3.4649998749999997,-0.11179401397705077
-3.46,0.02712168884277344,-3.459999875,-0.12281684112548828
-3.455,0.03312095642089844,-3.454999875,-0.10878778839111328
-3.45,0.023122177124023438,-3.449999875,-0.11179401397705077
-3.4450000000000003,0.03112120056152344,-3.444999875,-0.11580231475830077
-3.44,0.03412083435058594,-3.439999875,-0.10778571319580077
-3.435,0.03212107849121094,-3.434999875,-0.09776496124267578
-3.43,0.02912144470214844,-3.429999875,-0.10678363800048828
-3.4250000000000003,0.03412083435058594,-3.424999875,-0.11279608917236328
-3.42,0.03712046813964844,-3.419999875,-0.08974835968017578
-3.415,0.03512071228027344,-3.414999875,-0.09876703643798827
-3.41,0.03212107849121094,-3.409999875,-0.10978986358642577
-3.4050000000000002,0.03312095642089844,-3.404999875,-0.10778571319580077
-3.4,0.02412205505371094,-3.399999875,-0.10177326202392578
-3.395,0.03212107849121094,-3.394999875,-0.10978986358642577
-3.39,0.02812156677246094,-3.389999875,-0.10678363800048828
-3.3850000000000002,0.03012132263183594,-3.384999875,-0.09275458526611327
-3.38,0.03612059020996094,-3.3799998749999998,-0.10678363800048828
-3.375,0.03112120056152344,-3.374999875,-0.10678363800048828
-3.37,0.03212107849121094,-3.369999875,-0.09676288604736327
-3.365,0.03112120056152344,-3.364999875,-0.09175251007080078
-3.36,0.03212107849121094,-3.3599998749999997,-0.11079193878173828
-3.355,0.04012010192871094,-3.354999875,-0.09475873565673827
-3.35,0.02912144470214844,-3.349999875,-0.08574005889892578
-3.345,0.02612181091308594,-3.344999875,-0.10578156280517578
-3.34,0.02812156677246094,-3.3399998749999997,-0.09075043487548828
-3.335,0.03012132263183594,-3.334999875,-0.08373590850830077
-3.33,0.03512071228027344,-3.329999875,-0.09175251007080078
-3.325,0.02912144470214844,-3.324999875,-0.09375666046142578
-3.3200000000000003,0.03212107849121094,-3.319999875,-0.09475873565673827
-3.315,0.03312095642089844,-3.314999875,-0.09475873565673827
-3.31,0.03312095642089844,-3.309999875,-0.10578156280517578
-3.305,0.02412205505371094,-3.304999875,-0.09876703643798827
-3.3000000000000003,0.03512071228027344,-3.299999875,-0.09375666046142578
-3.295,0.03012132263183594,-3.294999875,-0.09676288604736327
-3.29,0.03212107849121094,-3.289999875,-0.08473798370361328
-3.285,0.03112120056152344,-3.284999875,-0.06870478057861328
-3.2800000000000002,0.03012132263183594,-3.279999875,-0.08974835968017578
-3.275,0.02812156677246094,-3.274999875,-0.08874628448486328
-3.27,0.03012132263183594,-3.269999875,-0.08072968292236328
-3.265,0.03412083435058594,-3.264999875,-0.08574005889892578
-3.2600000000000002,0.03312095642089844,-3.259999875,-0.10678363800048828
-3.255,0.03312095642089844,-3.2549998749999998,-0.09475873565673827
-3.25,0.04012010192871094,-3.249999875,-0.09075043487548828
-3.245,0.03412083435058594,-3.244999875,-0.10978986358642577
-3.24,0.03112120056152344,-3.239999875,-0.10578156280517578
-3.235,0.03112120056152344,-3.2349998749999997,-0.09676288604736327
-3.23,0.03412083435058594,-3.229999875,-0.10277533721923827
-3.225,0.03112120056152344,-3.224999875,-0.10377741241455078
-3.22,0.03212107849121094,-3.219999875,-0.07672138214111328
-3.215,0.03012132263183594,-3.2149998749999997,-0.02761969757080078
-3.21,0.03112120056152344,-3.209999875,0.03651311492919922
-3.205,0.03212107849121094,-3.204999875,0.09964385223388672
-3.2,0.03212107849121094,-3.199999875,0.14072893524169922
-3.1950000000000003,0.03112120056152344,-3.194999875,0.07058367156982422
-3.19,0.03312095642089844,-3.189999875,-0.13083344268798827
-3.185,0.03012132263183594,-3.184999875,-0.29116547393798825
-3.18,0.03912022399902344,-3.179999875,-0.34227130889892576
-3.1750000000000003,0.03412083435058594,-3.174999875,-0.32623810577392576
-3.17,0.03512071228027344,-3.169999875,-0.28214679718017577
-3.165,0.03212107849121094,-3.164999875,-0.22803473663330076
-3.16,0.03412083435058594,-3.159999875,-0.18093720245361328
-3.1550000000000002,0.03412083435058594,-3.154999875,-0.11880854034423828
-3.15,0.03412083435058594,-3.149999875,-0.08473798370361328
-3.145,0.02712168884277344,-3.144999875,-0.08173175811767577
-3.14,0.03312095642089844,-3.139999875,-0.06269232940673827
-3.1350000000000002,0.03612059020996094,-3.134999875,-0.04064667510986328
-3.13,0.03712046813964844,-3.1299998749999998,-0.04365290069580078
-3.125,0.03712046813964844,-3.124999875,-0.04866327667236328
-3.12,0.03812034606933594,-3.119999875,-0.04265082550048828
-3.115,0.03612059020996094,-3.114999875,-0.04265082550048828
-3.11,0.03212107849121094,-3.1099998749999997,-0.05567780303955078
-3.105,0.03112120056152344,-3.104999875,-0.04866327667236328
-3.1,0.03512071228027344,-3.099999875,-0.04766120147705078
-3.095,0.03412083435058594,-3.094999875,-0.06469647979736327
-3.09,0.03712046813964844,-3.0899998749999997,-0.05768195343017578
-3.085,0.03112120056152344,-3.084999875,-0.04966535186767578
-3.08,0.03212107849121094,-3.079999875,-0.051669502258300776
-3.075,0.03812034606933594,-3.074999875,-0.05868402862548828
-3.0700000000000003,0.03112120056152344,-3.069999875,-0.04265082550048828
-3.065,0.03112120056152344,-3.064999875,-0.04265082550048828
-3.06,0.03412083435058594,-3.059999875,-0.05768195343017578
-3.055,0.03312095642089844,-3.054999875,-0.04966535186767578
-3.0500000000000003,0.03912022399902344,-3.049999875,-0.04465497589111328
-3.045,0.03112120056152344,-3.044999875,-0.05868402862548828
-3.04,0.03112120056152344,-3.039999875,-0.05066742706298828
-3.035,0.03112120056152344,-3.034999875,-0.035636299133300776
-3.0300000000000002,0.02812156677246094,-3.029999875,-0.035636299133300776
-3.025,0.03512071228027344,-3.024999875,-0.03062592315673828
-3.02,0.03612059020996094,-3.019999875,-0.022609321594238282
-3.015,0.02712168884277344,-3.014999875,-0.01759894561767578
-3.0100000000000002,0.03612059020996094,-3.009999875,-0.02060517120361328
-3.005,0.03412083435058594,-3.0049998749999998,-0.003569892883300781
-3.0,0.02812156677246094,-2.999999875,0.0004384078979492187
-2.995,0.03012132263183594,-2.994999875,-0.004571968078613281
-2.99,0.03212107849121094,-2.989999875,-0.0005636672973632813
-2.985,0.03312095642089844,-2.9849998749999997,0.013465385437011718
-2.98,0.03812034606933594,-2.979999875,0.008455009460449218
-2.975,0.03612059020996094,-2.974999875,0.02248406219482422
-2.97,0.03012132263183594,-2.969999875,0.03951934051513672
-2.965,0.03112120056152344,-2.9649998749999997,0.033506889343261716
-2.96,0.03112120056152344,-2.959999875,0.027494438171386717
-2.955,0.03212107849121094,-2.954999875,0.02248406219482422
-2.95,0.03012132263183594,-2.949999875,0.028496513366699217
-2.945,0.03712046813964844,-2.9449998749999997,0.015469535827636717
-2.94,0.03212107849121094,-2.939999875,0.002442558288574219
-2.935,0.03512071228027344,-2.934999875,-0.002567817687988281
-2.93,0.03012132263183594,-2.929999875,-0.02361139678955078
-2.9250000000000003,0.03212107849121094,-2.924999875,-0.04766120147705078
-2.92,0.03812034606933594,-2.919999875,-0.05768195343017578
-2.915,0.03312095642089844,-2.914999875,-0.08273383331298828
-2.91,0.04012010192871094,-2.909999875,-0.11179401397705077
-2.9050000000000002,0.03612059020996094,-2.904999875,-0.12081269073486328
-2.9,0.03012132263183594,-2.899999875,-0.13383966827392577
-2.895,0.03812034606933594,-2.894999875,-0.14887079620361326
-2.89,0.02912144470214844,-2.889999875,-0.14786872100830079
-2.8850000000000002,0.03012132263183594,-2.884999875,-0.14686664581298828
-2.88,0.03912022399902344,-2.8799998749999998,-0.14486249542236326
-2.875,0.04012010192871094,-2.874999875,-0.15488324737548828
-2.87,0.02812156677246094,-2.869999875,-0.14386042022705078
-2.865,0.03712046813964844,-2.864999875,-0.14887079620361326
-2.86,0.03212107849121094,-2.8599998749999997,-0.15488324737548828
-2.855,0.03412083435058594,-2.854999875,-0.14686664581298828
-2.85,0.03412083435058594,-2.849999875,-0.1328375930786133
-2.845,0.02912144470214844,-2.844999875,-0.14786872100830079
-2.84,0.03712046813964844,-2.8399998749999997,-0.13885004425048827
-2.835,0.03612059020996094,-2.834999875,-0.12782721710205078
-2.83,0.03112120056152344,-2.829999875,-0.12983136749267576
-2.825,0.03212107849121094,-2.824999875,-0.13484174346923827
-2.82,0.03412083435058594,-2.8199998749999997,-0.12582306671142576
-2.815,0.03712046813964844,-2.814999875,-0.12482099151611327
-2.81,0.03512071228027344,-2.809999875,-0.13383966827392577
-2.805,0.02912144470214844,-2.804999875,-0.11580231475830077
-2.8000000000000003,0.02912144470214844,-2.799999875,-0.11279608917236328
-2.795,0.041119979858398444,-2.794999875,-0.11179401397705077
-2.79,0.03812034606933594,-2.789999875,-0.11279608917236328
-2.785,0.03412083435058594,-2.784999875,-0.10578156280517578
-2.7800000000000002,0.03112120056152344,-2.779999875,-0.10978986358642577
-2.775,0.03512071228027344,-2.774999875,-0.11480023956298828
-2.77,0.02912144470214844,-2.769999875,-0.10177326202392578
-2.765,0.03312095642089844,-2.764999875,-0.10077118682861327
-2.7600000000000002,0.03212107849121094,-2.759999875,-0.11079193878173828
-2.755,0.04012010192871094,-2.7549998749999998,-0.09576081085205078
-2.75,0.02812156677246094,-2.749999875,-0.09175251007080078
-2.745,0.03712046813964844,-2.744999875,-0.10778571319580077
-2.74,0.03312095642089844,-2.739999875,-0.10077118682861327
-2.735,0.03312095642089844,-2.7349998749999997,-0.08574005889892578
-2.73,0.03312095642089844,-2.729999875,-0.09776496124267578
-2.725,0.03512071228027344,-2.724999875,-0.10377741241455078
-2.72,0.03712046813964844,-2.719999875,-0.08173175811767577
-2.715,0.03212107849121094,-2.7149998749999997,-0.09075043487548828
-2.71,0.03112120056152344,-2.709999875,-0.10277533721923827
-2.705,0.03212107849121094,-2.704999875,-0.09375666046142578
-2.7,0.03212107849121094,-2.699999875,-0.08574005889892578
-2.695,0.03312095642089844,-2.6949998749999997,-0.09576081085205078
-2.69,0.03612059020996094,-2.689999875,-0.09175251007080078
-2.685,0.03412083435058594,-2.684999875,-0.08473798370361328
-2.68,0.03412083435058594,-2.679999875,-0.09576081085205078
-2.6750000000000003,0.03112120056152344,-2.674999875,-0.09976911163330078
-2.67,0.03512071228027344,-2.669999875,-0.08674213409423828
-2.665,0.03212107849121094,-2.664999875,-0.08774420928955078
-2.66,0.03412083435058594,-2.659999875,-0.09175251007080078
-2.6550000000000002,0.03312095642089844,-2.654999875,-0.08574005889892578
-2.65,0.02912144470214844,-2.649999875,-0.07972760772705077
-2.645,0.03612059020996094,-2.644999875,-0.08874628448486328
-2.64,0.02512193298339844,-2.639999875,-0.08574005889892578
-2.6350000000000002,0.02612181091308594,-2.634999875,-0.08173175811767577
-2.63,0.02612181091308594,-2.6299998749999998,-0.08473798370361328
-2.625,0.03412083435058594,-2.624999875,-0.08874628448486328
-2.62,0.03512071228027344,-2.619999875,-0.07672138214111328
-2.615,0.03512071228027344,-2.614999875,-0.08072968292236328
-2.61,0.02612181091308594,-2.6099998749999997,-0.08674213409423828
-2.605,0.03212107849121094,-2.604999875,-0.06970685577392578
-2.6,0.03412083435058594,-2.599999875,-0.07171100616455078
-2.595,0.03412083435058594,-2.594999875,-0.08273383331298828
-2.59,0.03212107849121094,-2.5899998749999997,-0.07872553253173828
-2.585,0.03512071228027344,-2.584999875,-0.06970685577392578
-2.58,0.02812156677246094,-2.579999875,-0.08173175811767577
-2.575,0.02912144470214844,-2.574999875,-0.09375666046142578
-2.57,0.03412083435058594,-2.5699998749999997,-0.08173175811767577
-2.565,0.03512071228027344,-2.564999875,-0.09175251007080078
-2.56,0.03812034606933594,-2.559999875,-0.10578156280517578
-2.555,0.03212107849121094,-2.554999875,-0.09375666046142578
-2.5500000000000003,0.03412083435058594,-2.549999875,-0.08674213409423828
-2.545,0.03112120056152344,-2.544999875,-0.08674213409423828
-2.54,0.03012132263183594,-2.539999875,-0.08273383331298828
-2.535,0.03712046813964844,-2.534999875,-0.06369440460205078
-2.5300000000000002,0.03512071228027344,-2.529999875,-0.06068817901611328
-2.525,0.03712046813964844,-2.524999875,-0.06369440460205078
-2.52,0.02912144470214844,-2.519999875,-0.06169025421142578
-2.515,0.03312095642089844,-2.514999875,-0.06569855499267578
-2.5100000000000002,0.03312095642089844,-2.509999875,-0.08072968292236328
-2.505,0.03312095642089844,-2.5049998749999998,-0.06670063018798827
-2.5,0.03412083435058594,-2.499999875,-0.06870478057861328
-2.495,0.03212107849121094,-2.494999875,-0.07772345733642577
-2.49,0.03212107849121094,-2.489999875,-0.08574005889892578
-2.485,0.03112120056152344,-2.4849998749999997,-0.07371515655517578
-2.48,0.03912022399902344,-2.479999875,-0.08674213409423828
-2.475,0.04411961364746094,-2.474999875,-0.08874628448486328
-2.47,0.03512071228027344,-2.469999875,-0.07070893096923828
-2.465,0.03612059020996094,-2.4649998749999997,-0.03964459991455078
-2.46,0.03312095642089844,-2.459999875,0.013465385437011718
-2.455,0.03812034606933594,-2.454999875,0.08661687469482421
-2.45,0.03412083435058594,-2.449999875,0.1437351608276367
-2.445,0.03512071228027344,-2.4449998749999997,0.1277019577026367
-2.44,0.03912022399902344,-2.439999875,-0.008580268859863282
-2.435,0.03612059020996094,-2.434999875,-0.19396417999267576
-2.43,0.03412083435058594,-2.429999875,-0.30218830108642575
-2.4250000000000003,0.03912022399902344,-2.424999875,-0.32022565460205077
-2.42,0.03412083435058594,-2.419999875,-0.29116547393798825
-2.415,0.03612059020996094,-2.414999875,-0.24807624053955077
-2.41,0.03612059020996094,-2.409999875,-0.18694965362548827
-2.4050000000000002,0.03112120056152344,-2.404999875,-0.13083344268798827
-2.4,0.03212107849121094,-2.399999875,-0.08674213409423828
-2.395,0.03812034606933594,-2.394999875,-0.06970685577392578
-2.39,0.03012132263183594,-2.389999875,-0.05667987823486328
-2.3850000000000002,0.03012132263183594,-2.384999875,-0.04064667510986328
-2.38,0.02512193298339844,-2.3799998749999998,-0.04465497589111328
-2.375,0.03212107849121094,-2.374999875,-0.04766120147705078
-2.37,0.041119979858398444,-2.369999875,-0.03062592315673828
-2.365,0.03712046813964844,-2.364999875,-0.03463422393798828
-2.36,0.03612059020996094,-2.3599998749999997,-0.04164875030517578
-2.355,0.03112120056152344,-2.354999875,-0.03263007354736328
-2.35,0.03412083435058594,-2.349999875,-0.02862177276611328
-2.345,0.03212107849121094,-2.344999875,-0.03864252471923828
-2.34,0.03312095642089844,-2.3399998749999997,-0.04064667510986328
-2.335,0.03012132263183594,-2.334999875,-0.03363214874267578
-2.33,0.03712046813964844,-2.329999875,-0.04265082550048828
-2.325,0.03812034606933594,-2.324999875,-0.04265082550048828
-2.32,0.03112120056152344,-2.3199998749999997,-0.03463422393798828
-2.315,0.02912144470214844,-2.314999875,-0.02661762237548828
-2.31,0.03412083435058594,-2.309999875,-0.03463422393798828
-2.305,0.03112120056152344,-2.304999875,-0.03162799835205078
-2.3000000000000003,0.03412083435058594,-2.299999875,-0.02160724639892578
-2.295,0.03312095642089844,-2.294999875,-0.03263007354736328
-2.29,0.03312095642089844,-2.289999875,-0.03162799835205078
-2.285,0.03812034606933594,-2.284999875,-0.01559479522705078
-2.2800000000000002,0.03012132263183594,-2.279999875,-0.022609321594238282
-2.275,0.03312095642089844,-2.274999875,-0.022609321594238282
-2.27,0.03512071228027344,-2.269999875,-0.003569892883300781
-2.265,0.02912144470214844,-2.264999875,-0.008580268859863282
-2.2600000000000002,0.02712168884277344,-2.259999875,-0.008580268859863282
-2.255,0.03212107849121094,-2.2549998749999998,0.004446708679199218
-2.25,0.03212107849121094,-2.249999875,0.004446708679199218
-2.245,0.03912022399902344,-2.244999875,0.008455009460449218
-2.24,0.02912144470214844,-2.239999875,0.015469535827636717
-2.235,0.02712168884277344,-2.2349998749999997,0.032504814147949215
-2.23,0.03512071228027344,-2.229999875,0.018475761413574217
-2.225,0.03112120056152344,-2.224999875,0.032504814147949215
-2.22,0.03012132263183594,-2.219999875,0.047535942077636714
-2.215,0.03212107849121094,-2.2149998749999997,0.04452971649169922
-2.21,0.03712046813964844,-2.209999875,0.03851726531982422
-2.205,0.041119979858398444,-2.204999875,0.04352764129638672
-2.2,0.02912144470214844,-2.199999875,0.04352764129638672
-2.195,0.03212107849121094,-2.1949998749999997,0.018475761413574217
-2.19,0.03212107849121094,-2.189999875,0.009457084655761719
-2.185,0.03712046813964844,-2.184999875,0.007452934265136719
-2.18,0.03212107849121094,-2.179999875,-0.00958234405517578
-2.1750000000000003,0.03612059020996094,-2.174999875,-0.03062592315673828
-2.17,0.03312095642089844,-2.169999875,-0.04966535186767578
-2.165,0.03512071228027344,-2.164999875,-0.06569855499267578
-2.16,0.03312095642089844,-2.159999875,-0.08173175811767577
-2.1550000000000002,0.03212107849121094,-2.154999875,-0.09576081085205078
-2.15,0.03112120056152344,-2.149999875,-0.10678363800048828
-2.145,0.03512071228027344,-2.144999875,-0.12181476593017578
-2.14,0.02912144470214844,-2.139999875,-0.12381891632080078
-2.1350000000000002,0.03112120056152344,-2.134999875,-0.11981061553955077
-2.13,0.03512071228027344,-2.1299998749999998,-0.1328375930786133
-2.125,0.02812156677246094,-2.124999875,-0.13584381866455078
-2.12,0.03112120056152344,-2.119999875,-0.12782721710205078
-2.115,0.03312095642089844,-2.114999875,-0.12582306671142576
-2.11,0.03412083435058594,-2.1099998749999997,-0.13885004425048827
-2.105,0.02912144470214844,-2.104999875,-0.12882929229736328
-2.1,0.03712046813964844,-2.099999875,-0.12582306671142576
-2.095,0.02912144470214844,-2.094999875,-0.14085419464111326
-2.09,0.03312095642089844,-2.0899998749999997,-0.13083344268798827
-2.085,0.03212107849121094,-2.084999875,-0.12582306671142576
-2.08,0.03612059020996094,-2.079999875,-0.12482099151611327
-2.075,0.03112120056152344,-2.074999875,-0.11981061553955077
-2.07,0.03212107849121094,-2.0699998749999997,-0.10978986358642577
-2.065,0.03212107849121094,-2.064999875,-0.10878778839111328
-2.06,0.03312095642089844,-2.059999875,-0.11480023956298828
-2.055,0.02912144470214844,-2.054999875,-0.10377741241455078
-2.05,0.02812156677246094,-2.0499998749999997,-0.09876703643798827
-2.045,0.03512071228027344,-2.044999875,-0.10477948760986328
-2.04,0.03412083435058594,-2.039999875,-0.10477948760986328
-2.035,0.03212107849121094,-2.034999875,-0.09175251007080078
-2.0300000000000002,0.03712046813964844,-2.029999875,-0.09475873565673827
-2.025,0.03312095642089844,-2.024999875,-0.09876703643798827
-2.02,0.03712046813964844,-2.019999875,-0.08774420928955078
-2.015,0.03512071228027344,-2.014999875,-0.08674213409423828
-2.0100000000000002,0.03612059020996094,-2.009999875,-0.10778571319580077
-2.005,0.03612059020996094,-2.0049998749999998,-0.09976911163330078
-2.0,0.02812156677246094,-1.999999875,-0.09375666046142578
-1.995,0.02812156677246094,-1.9949998750000002,-0.10878778839111328
-1.99,0.03512071228027344,-1.989999875,-0.10477948760986328
-1.985,0.02412205505371094,-1.9849998750000002,-0.09275458526611327
-1.98,0.03112120056152344,-1.979999875,-0.09175251007080078
-1.975,0.02912144470214844,-1.9749998750000002,-0.09175251007080078
-1.97,0.03512071228027344,-1.969999875,-0.08173175811767577
-1.965,0.02812156677246094,-1.9649998750000002,-0.08473798370361328
-1.96,0.02812156677246094,-1.959999875,-0.09676288604736327
-1.955,0.02812156677246094,-1.9549998750000002,-0.09676288604736327
-1.95,0.03512071228027344,-1.949999875,-0.08874628448486328
-1.945,0.03012132263183594,-1.9449998750000002,-0.10277533721923827
-1.94,0.02612181091308594,-1.939999875,-0.09275458526611327
-1.935,0.03212107849121094,-1.9349998750000001,-0.07371515655517578
-1.93,0.03312095642089844,-1.929999875,-0.08774420928955078
-1.925,0.02912144470214844,-1.9249998750000001,-0.08574005889892578
-1.92,0.03512071228027344,-1.919999875,-0.07171100616455078
-1.915,0.02912144470214844,-1.9149998750000001,-0.07872553253173828
-1.9100000000000001,0.03212107849121094,-1.9099998750000002,-0.09075043487548828
-1.905,0.03212107849121094,-1.9049998750000001,-0.08574005889892578
-1.9000000000000001,0.03312095642089844,-1.8999998750000002,-0.07672138214111328
-1.895,0.03812034606933594,-1.8949998750000001,-0.08674213409423828
-1.8900000000000001,0.03712046813964844,-1.8899998750000002,-0.08774420928955078
-1.885,0.02912144470214844,-1.884999875,-0.07872553253173828
-1.8800000000000001,0.03812034606933594,-1.8799998750000002,-0.07872553253173828
-1.875,0.03412083435058594,-1.874999875,-0.08674213409423828
-1.87,0.02712168884277344,-1.8699998750000002,-0.07371515655517578
-1.865,0.02912144470214844,-1.864999875,-0.07972760772705077
-1.86,0.03012132263183594,-1.8599998750000002,-0.08774420928955078
-1.855,0.03512071228027344,-1.854999875,-0.07972760772705077
-1.85,0.03412083435058594,-1.8499998750000002,-0.08173175811767577
-1.845,0.03112120056152344,-1.844999875,-0.08874628448486328
-1.84,0.03512071228027344,-1.8399998750000002,-0.07772345733642577
-1.835,0.03112120056152344,-1.834999875,-0.06670063018798827
-1.83,0.02512193298339844,-1.8299998750000002,-0.07672138214111328
-1.825,0.03012132263183594,-1.824999875,-0.09075043487548828
-1.82,0.03112120056152344,-1.8199998750000002,-0.08874628448486328
-1.815,0.03212107849121094,-1.814999875,-0.09375666046142578
-1.81,0.03012132263183594,-1.8099998750000001,-0.10578156280517578
-1.805,0.03112120056152344,-1.804999875,-0.10277533721923827
-1.8,0.03212107849121094,-1.7999998750000001,-0.07972760772705077
-1.795,0.03412083435058594,-1.794999875,-0.08473798370361328
-1.79,0.03012132263183594,-1.7899998750000001,-0.07171100616455078
-1.7850000000000001,0.03312095642089844,-1.7849998750000002,-0.053673652648925776
-1.78,0.03412083435058594,-1.7799998750000001,-0.05768195343017578
-1.7750000000000001,0.03212107849121094,-1.7749998750000002,-0.06670063018798827
-1.77,0.03112120056152344,-1.7699998750000001,-0.051669502258300776
-1.7650000000000001,0.03112120056152344,-1.7649998750000002,-0.06369440460205078
-1.76,0.03412083435058594,-1.759999875,-0.08774420928955078
-1.7550000000000001,0.03512071228027344,-1.7549998750000002,-0.07471723175048828
-1.75,0.03512071228027344,-1.749999875,-0.07271308135986328
-1.745,0.03312095642089844,-1.7449998750000002,-0.07972760772705077
-1.74,0.03312095642089844,-1.739999875,-0.07672138214111328
-1.735,0.03412083435058594,-1.7349998750000002,-0.06670063018798827
-1.73,0.03112120056152344,-1.729999875,-0.07371515655517578
-1.725,0.03312095642089844,-1.7249998750000002,-0.07972760772705077
-1.72,0.03212107849121094,-1.719999875,-0.053673652648925776
-1.715,0.03212107849121094,-1.7149998750000002,-0.01960309600830078
-1.71,0.03512071228027344,-1.709999875,0.04352764129638672
-1.705,0.02712168884277344,-1.7049998750000002,0.11166875457763671
-1.7,0.03112120056152344,-1.699999875,0.1547579879760742
-1.695,0.04012010192871094,-1.6949998750000002,0.09262932586669921
-1.69,0.03212107849121094,-1.689999875,-0.08974835968017578
-1.685,0.03412083435058594,-1.6849998750000001,-0.26410944366455075
-1.68,0.03312095642089844,-1.679999875,-0.3302464065551758
-1.675,0.03712046813964844,-1.6749998750000001,-0.33124848175048827
-1.67,0.03412083435058594,-1.669999875,-0.29116547393798825
-1.665,0.03312095642089844,-1.6649998750000001,-0.23805548858642578
-1.6600000000000001,0.03212107849121094,-1.6599998750000002,-0.18694965362548827
-1.655,0.03012132263183594,-1.6549998750000001,-0.12882929229736328
-1.6500000000000001,0.02812156677246094,-1.6499998750000002,-0.08674213409423828
-1.645,0.03112120056152344,-1.6449998750000001,-0.06770270538330078
-1.6400000000000001,0.03612059020996094,-1.6399998750000002,-0.05066742706298828
-1.635,0.02712168884277344,-1.634999875,-0.04265082550048828
-1.6300000000000001,0.03212107849121094,-1.6299998750000002,-0.04164875030517578
-1.625,0.03412083435058594,-1.624999875,-0.04265082550048828
-1.62,0.03512071228027344,-1.6199998750000002,-0.02361139678955078
-1.615,0.03512071228027344,-1.614999875,-0.02761969757080078
-1.61,0.03112120056152344,-1.6099998750000002,-0.03663837432861328
-1.605,0.03612059020996094,-1.604999875,-0.02661762237548828
-1.6,0.03212107849121094,-1.5999998750000002,-0.02361139678955078
-1.595,0.03312095642089844,-1.594999875,-0.035636299133300776
-1.59,0.02912144470214844,-1.5899998750000002,-0.02962384796142578
-1.585,0.03512071228027344,-1.584999875,-0.01960309600830078
-1.58,0.02912144470214844,-1.5799998750000002,-0.03663837432861328
-1.575,0.03312095642089844,-1.574999875,-0.03363214874267578
-1.57,0.02912144470214844,-1.5699998750000002,-0.02361139678955078
-1.565,0.02812156677246094,-1.564999875,-0.02761969757080078
-1.56,0.02912144470214844,-1.5599998750000001,-0.03263007354736328
-1.555,0.03712046813964844,-1.554999875,-0.02060517120361328
-1.55,0.03312095642089844,-1.5499998750000001,-0.01359064483642578
-1.545,0.03512071228027344,-1.544999875,-0.02661762237548828
-1.54,0.03412083435058594,-1.5399998750000001,-0.01960309600830078
-1.5350000000000001,0.03612059020996094,-1.5349998750000002,-0.012588569641113281
-1.53,0.03312095642089844,-1.5299998750000001,-0.02461347198486328
-1.5250000000000001,0.03612059020996094,-1.5249998750000002,-0.02661762237548828
-1.52,0.03512071228027344,-1.5199998750000001,-0.01058441925048828
-1.5150000000000001,0.03612059020996094,-1.5149998750000002,-0.005574043273925781
-1.51,0.03612059020996094,-1.509999875,-0.002567817687988281
-1.5050000000000001,0.03212107849121094,-1.5049998750000002,0.02348613739013672
-1.5,0.03412083435058594,-1.499999875,0.029498588562011718
-1.495,0.03112120056152344,-1.4949998750000002,0.02248406219482422
-1.49,0.03112120056152344,-1.489999875,0.03651311492919922
-1.485,0.03312095642089844,-1.4849998750000002,0.048538017272949215
-1.48,0.03312095642089844,-1.479999875,0.04352764129638672
-1.475,0.03512071228027344,-1.4749998750000002,0.04452971649169922
-1.47,0.02912144470214844,-1.469999875,0.05956084442138672
-1.465,0.03612059020996094,-1.4649998750000002,0.06256707000732421
-1.46,0.03112120056152344,-1.459999875,0.048538017272949215
-1.455,0.03512071228027344,-1.4549998750000002,0.05655461883544922
-1.45,0.03512071228027344,-1.449999875,0.05956084442138672
-1.445,0.03112120056152344,-1.4449998750000002,0.032504814147949215
-1.44,0.03712046813964844,-1.439999875,0.020479911804199218
-1.435,0.03712046813964844,-1.4349998750000001,-0.0015657424926757812
-1.43,0.03212107849121094,-1.429999875,-0.02561554718017578
-1.425,0.03212107849121094,-1.4249998750000001,-0.04565705108642578
-1.42,0.03312095642089844,-1.419999875,-0.05066742706298828
-1.415,0.03112120056152344,-1.4149998750000001,-0.07872553253173828
-1.41,0.03612059020996094,-1.409999875,-0.09876703643798827
-1.405,0.03412083435058594,-1.4049998750000001,-0.10477948760986328
-1.4000000000000001,0.043119735717773444,-1.3999998750000002,-0.11079193878173828
-1.395,0.03112120056152344,-1.3949998750000001,-0.12882929229736328
-1.3900000000000001,0.03312095642089844,-1.3899998750000002,-0.13985211944580078
-1.385,0.03312095642089844,-1.384999875,-0.13383966827392577
-1.3800000000000001,0.03612059020996094,-1.3799998750000002,-0.14586457061767577
-1.375,0.03112120056152344,-1.374999875,-0.14486249542236326
-1.37,0.03412083435058594,-1.3699998750000002,-0.13584381866455078
-1.365,0.03612059020996094,-1.364999875,-0.13885004425048827
-1.36,0.03212107849121094,-1.3599998750000002,-0.15087494659423828
-1.355,0.03212107849121094,-1.354999875,-0.13985211944580078
-1.35,0.03512071228027344,-1.3499998750000002,-0.1368458938598633
-1.345,0.03512071228027344,-1.344999875,-0.14486249542236326
-1.34,0.03912022399902344,-1.3399998750000002,-0.14085419464111326
-1.335,0.03412083435058594,-1.334999875,-0.13183551788330078
-1.33,0.03712046813964844,-1.3299998750000002,-0.14185626983642577
-1.325,0.03712046813964844,-1.324999875,-0.13985211944580078
-1.32,0.03012132263183594,-1.3199998750000002,-0.12682514190673827
-1.315,0.03212107849121094,-1.314999875,-0.12081269073486328
-1.31,0.03112120056152344,-1.3099998750000001,-0.12281684112548828
-1.305,0.03312095642089844,-1.304999875,-0.10878778839111328
-1.3,0.04211985778808594,-1.2999998750000001,-0.10878778839111328
-1.295,0.03612059020996094,-1.294999875,-0.11780646514892577
-1.29,0.03312095642089844,-1.2899998750000001,-0.11179401397705077
-1.285,0.03012132263183594,-1.284999875,-0.10277533721923827
-1.28,0.03712046813964844,-1.2799998750000001,-0.11379816436767577
-1.2750000000000001,0.03212107849121094,-1.2749998750000002,-0.11480023956298828
-1.27,0.03712046813964844,-1.2699998750000001,-0.10477948760986328
-1.2650000000000001,0.03312095642089844,-1.2649998750000002,-0.10277533721923827
-1.26,0.03612059020996094,-1.259999875,-0.10377741241455078
-1.2550000000000001,0.03212107849121094,-1.2549998750000002,-0.09876703643798827
-1.25,0.03812034606933594,-1.249999875,-0.09876703643798827
-1.245,0.03412083435058594,-1.2449998750000002,-0.10578156280517578
-1.24,0.03212107849121094,-1.239999875,-0.10177326202392578
-1.235,0.03512071228027344,-1.2349998750000002,-0.09576081085205078
-1.23,0.03812034606933594,-1.229999875,-0.10477948760986328
-1.225,0.03712046813964844,-1.2249998750000002,-0.09976911163330078
-1.22,0.03512071228027344,-1.219999875,-0.08974835968017578
-1.215,0.03812034606933594,-1.2149998750000002,-0.09375666046142578
-1.21,0.03812034606933594,-1.209999875,-0.10077118682861327
-1.205,0.041119979858398444,-1.2049998750000002,-0.09275458526611327
-1.2,0.03712046813964844,-1.199999875,-0.08974835968017578
-1.195,0.03812034606933594,-1.1949998750000002,-0.10177326202392578
-1.19,0.03212107849121094,-1.189999875,-0.10077118682861327
-1.185,0.04012010192871094,-1.1849998750000001,-0.09175251007080078
-1.18,0.03812034606933594,-1.179999875,-0.09075043487548828
-1.175,0.03512071228027344,-1.1749998750000001,-0.09976911163330078
-1.17,0.04012010192871094,-1.169999875,-0.07471723175048828
-1.165,0.03712046813964844,-1.1649998750000001,-0.07371515655517578
-1.16,0.03312095642089844,-1.159999875,-0.08774420928955078
-1.155,0.03712046813964844,-1.1549998750000001,-0.07972760772705077
-1.1500000000000001,0.03812034606933594,-1.1499998750000002,-0.07471723175048828
-1.145,0.03212107849121094,-1.1449998750000001,-0.08574005889892578
-1.1400000000000001,0.03812034606933594,-1.1399998750000002,-0.08373590850830077
-1.135,0.03312095642089844,-1.134999875,-0.07772345733642577
-1.1300000000000001,0.03212107849121094,-1.1299998750000002,-0.08473798370361328
-1.125,0.03812034606933594,-1.124999875,-0.08273383331298828
-1.12,0.03212107849121094,-1.1199998750000002,-0.07972760772705077
-1.115,0.03212107849121094,-1.114999875,-0.08072968292236328
-1.11,0.04012010192871094,-1.1099998750000002,-0.07772345733642577
-1.105,0.03512071228027344,-1.104999875,-0.06770270538330078
-1.1,0.03512071228027344,-1.0999998750000002,-0.06469647979736327
-1.095,0.04012010192871094,-1.094999875,-0.06770270538330078
-1.09,0.03412083435058594,-1.0899998750000002,-0.07672138214111328
-1.085,0.03612059020996094,-1.084999875,-0.05768195343017578
-1.08,0.03512071228027344,-1.0799998750000002,-0.08072968292236328
-1.075,0.03312095642089844,-1.074999875,-0.08273383331298828
-1.07,0.03912022399902344,-1.0699998750000002,-0.08574005889892578
-1.065,0.03312095642089844,-1.064999875,-0.09375666046142578
-1.06,0.03312095642089844,-1.0599998750000001,-0.09876703643798827
-1.055,0.03012132263183594,-1.054999875,-0.09275458526611327
-1.05,0.02912144470214844,-1.0499998750000001,-0.08774420928955078
-1.045,0.03912022399902344,-1.044999875,-0.09175251007080078
-1.04,0.03512071228027344,-1.0399998750000001,-0.07772345733642577
-1.035,0.03212107849121094,-1.034999875,-0.06169025421142578
-1.03,0.03412083435058594,-1.0299998750000001,-0.06870478057861328
-1.025,0.03012132263183594,-1.024999875,-0.06569855499267578
-1.02,0.03812034606933594,-1.0199998750000001,-0.06068817901611328
-1.0150000000000001,0.03812034606933594,-1.0149998750000002,-0.05868402862548828
-1.01,0.02912144470214844,-1.009999875,-0.07772345733642577
-1.0050000000000001,0.03412083435058594,-1.0049998750000002,-0.07271308135986328
-1.0,0.03312095642089844,-0.999999875,-0.06469647979736327
-0.995,0.03912022399902344,-0.994999875,-0.07672138214111328
-0.99,0.03512071228027344,-0.989999875,-0.07371515655517578
-0.985,0.03012132263183594,-0.984999875,-0.06369440460205078
-0.98,0.02912144470214844,-0.979999875,-0.07772345733642577
-0.975,0.03812034606933594,-0.974999875,-0.07772345733642577
-0.97,0.03112120056152344,-0.969999875,-0.07672138214111328
-0.965,0.03312095642089844,-0.964999875,-0.04766120147705078
-0.96,0.03212107849121094,-0.959999875,-0.0005636672973632813
-0.9550000000000001,0.02812156677246094,-0.954999875,0.08260857391357422
-0.9500000000000001,0.03712046813964844,-0.949999875,0.15676213836669922
-0.9450000000000001,0.03812034606933594,-0.944999875,0.14473723602294922
-0.9400000000000001,0.03412083435058594,-0.939999875,0.046533866882324214
-0.935,0.03612059020996094,-0.934999875,-0.16690814971923829
-0.93,0.03012132263183594,-0.929999875,-0.3172194290161133
-0.925,0.03212107849121094,-0.924999875,-0.36531903839111324
-0.92,0.03512071228027344,-0.919999875,-0.34327338409423824
-0.915,0.03112120056152344,-0.914999875,-0.30218830108642575
-0.91,0.02712168884277344,-0.909999875,-0.23705341339111327
-0.905,0.03212107849121094,-0.904999875,-0.16089569854736327
-0.9,0.03712046813964844,-0.899999875,-0.11079193878173828
-0.895,0.03412083435058594,-0.894999875,-0.08774420928955078
-0.89,0.03912022399902344,-0.889999875,-0.06269232940673827
-0.885,0.03712046813964844,-0.884999875,-0.04265082550048828
-0.88,0.03612059020996094,-0.879999875,-0.03764044952392578
-0.875,0.03312095642089844,-0.874999875,-0.03964459991455078
-0.87,0.03612059020996094,-0.869999875,-0.02862177276611328
-0.865,0.03512071228027344,-0.864999875,-0.02862177276611328
-0.86,0.03212107849121094,-0.859999875,-0.03263007354736328
-0.855,0.03812034606933594,-0.854999875,-0.01960309600830078
-0.85,0.043119735717773444,-0.849999875,-0.008580268859863282
-0.845,0.03612059020996094,-0.844999875,-0.02361139678955078
-0.84,0.03212107849121094,-0.839999875,-0.02160724639892578
-0.835,0.03612059020996094,-0.834999875,-0.01058441925048828
-0.8300000000000001,0.03312095642089844,-0.829999875,-0.02461347198486328
-0.8250000000000001,0.03312095642089844,-0.824999875,-0.02361139678955078
-0.8200000000000001,0.02912144470214844,-0.819999875,-0.022609321594238282
-0.8150000000000001,0.03712046813964844,-0.814999875,-0.022609321594238282
-0.81,0.03512071228027344,-0.809999875,-0.03463422393798828
-0.805,0.03412083435058594,-0.804999875,-0.01759894561767578
-0.8,0.03812034606933594,-0.799999875,-0.01058441925048828
-0.795,0.03912022399902344,-0.794999875,-0.01759894561767578
-0.79,0.03512071228027344,-0.789999875,-0.01659687042236328
-0.785,0.02712168884277344,-0.784999875,-0.006576118469238281
-0.78,0.03212107849121094,-0.779999875,-0.004571968078613281
-0.775,0.03812034606933594,-0.774999875,-0.002567817687988281
-0.77,0.03512071228027344,-0.769999875,0.004446708679199218
-0.765,0.03212107849121094,-0.764999875,0.006450859069824218
-0.76,0.03612059020996094,-0.759999875,0.013465385437011718
-0.755,0.03512071228027344,-0.754999875,0.018475761413574217
-0.75,0.03812034606933594,-0.749999875,0.03951934051513672
-0.745,0.03112120056152344,-0.744999875,0.032504814147949215
-0.74,0.03312095642089844,-0.739999875,0.04252556610107422
-0.735,0.03212107849121094,-0.734999875,0.05455046844482422
-0.73,0.03412083435058594,-0.729999875,0.05655461883544922
-0.725,0.02912144470214844,-0.724999875,0.053548393249511717
-0.72,0.03612059020996094,-0.719999875,0.06557329559326172
-0.715,0.03512071228027344,-0.714999875,0.06857952117919922
-0.71,0.03512071228027344,-0.709999875,0.05655461883544922
-0.705,0.03312095642089844,-0.7049998749999999,0.06056291961669922
-0.7000000000000001,0.03112120056152344,-0.699999875,0.06156499481201171
-0.6950000000000001,0.02812156677246094,-0.694999875,0.04352764129638672
-0.6900000000000001,0.03412083435058594,-0.689999875,0.027494438171386717
-0.685,0.03112120056152344,-0.684999875,0.018475761413574217
-0.68,0.03012132263183594,-0.679999875,-0.007578193664550781
-0.675,0.02812156677246094,-0.674999875,-0.03263007354736328
-0.67,0.03712046813964844,-0.669999875,-0.04365290069580078
-0.665,0.03312095642089844,-0.664999875,-0.05968610382080078
-0.66,0.03712046813964844,-0.659999875,-0.09375666046142578
-0.655,0.03512071228027344,-0.654999875,-0.10377741241455078
-0.65,0.03812034606933594,-0.649999875,-0.10778571319580077
-0.645,0.03012132263183594,-0.644999875,-0.12482099151611327
-0.64,0.03312095642089844,-0.639999875,-0.13484174346923827
-0.635,0.03212107849121094,-0.634999875,-0.13985211944580078
-0.63,0.03812034606933594,-0.629999875,-0.14686664581298828
-0.625,0.03812034606933594,-0.624999875,-0.15889154815673828
-0.62,0.03312095642089844,-0.619999875,-0.14887079620361326
-0.615,0.03412083435058594,-0.614999875,-0.14786872100830079
-0.61,0.03612059020996094,-0.609999875,-0.15488324737548828
-0.605,0.03112120056152344,-0.604999875,-0.13985211944580078
-0.6,0.03712046813964844,-0.599999875,-0.13484174346923827
-0.595,0.03812034606933594,-0.594999875,-0.14786872100830079
-0.59,0.03812034606933594,-0.589999875,-0.14085419464111326
-0.585,0.02712168884277344,-0.584999875,-0.12983136749267576
-0.58,0.03312095642089844,-0.5799998749999999,-0.13784796905517577
-0.5750000000000001,0.03612059020996094,-0.574999875,-0.14386042022705078
-0.5700000000000001,0.03412083435058594,-0.569999875,-0.12882929229736328
-0.5650000000000001,0.03312095642089844,-0.564999875,-0.12281684112548828
-0.56,0.03312095642089844,-0.559999875,-0.12482099151611327
-0.555,0.03412083435058594,-0.554999875,-0.11279608917236328
-0.55,0.03212107849121094,-0.549999875,-0.10778571319580077
-0.545,0.03312095642089844,-0.544999875,-0.11680438995361328
-0.54,0.03712046813964844,-0.539999875,-0.10778571319580077
-0.535,0.03412083435058594,-0.534999875,-0.10177326202392578
-0.53,0.03312095642089844,-0.529999875,-0.10978986358642577
-0.525,0.03512071228027344,-0.524999875,-0.11580231475830077
-0.52,0.03512071228027344,-0.519999875,-0.09576081085205078
-0.515,0.03212107849121094,-0.514999875,-0.09776496124267578
-0.51,0.03312095642089844,-0.509999875,-0.10277533721923827
-0.505,0.03812034606933594,-0.504999875,-0.09175251007080078
-0.5,0.03412083435058594,-0.499999875,-0.07872553253173828
-0.495,0.03612059020996094,-0.494999875,-0.09676288604736327
-0.49,0.02912144470214844,-0.489999875,-0.09475873565673827
-0.485,0.03112120056152344,-0.48499987499999997,-0.08674213409423828
-0.48,0.03212107849121094,-0.47999987499999996,-0.09375666046142578
-0.47500000000000003,0.03512071228027344,-0.474999875,-0.09776496124267578
-0.47000000000000003,0.02912144470214844,-0.469999875,-0.07271308135986328
-0.465,0.03212107849121094,-0.464999875,-0.07672138214111328
-0.46,0.03812034606933594,-0.459999875,-0.08874628448486328
-0.455,0.04012010192871094,-0.454999875,-0.06870478057861328
-0.45,0.03312095642089844,-0.449999875,-0.06369440460205078
-0.445,0.03212107849121094,-0.444999875,-0.08072968292236328
-0.44,0.03812034606933594,-0.439999875,-0.08273383331298828
-0.435,0.03712046813964844,-0.434999875,-0.08273383331298828
-0.43,0.03512071228027344,-0.429999875,-0.09275458526611327
-0.425,0.03212107849121094,-0.42499987499999997,-0.08874628448486328
-0.42,0.03512071228027344,-0.41999987499999997,-0.07672138214111328
-0.41500000000000004,0.03112120056152344,-0.414999875,-0.08072968292236328
-0.41000000000000003,0.03512071228027344,-0.409999875,-0.08874628448486328
-0.405,0.03012132263183594,-0.404999875,-0.07872553253173828
-0.4,0.03112120056152344,-0.399999875,-0.07471723175048828
-0.395,0.03412083435058594,-0.394999875,-0.09576081085205078
-0.39,0.03012132263183594,-0.389999875,-0.08273383331298828
-0.385,0.03712046813964844,-0.384999875,-0.07872553253173828
-0.38,0.02812156677246094,-0.379999875,-0.08273383331298828
-0.375,0.03612059020996094,-0.374999875,-0.08373590850830077
-0.37,0.02812156677246094,-0.369999875,-0.06169025421142578
-0.365,0.03212107849121094,-0.364999875,-0.07772345733642577
-0.36,0.02912144470214844,-0.35999987499999997,-0.08373590850830077
-0.355,0.03812034606933594,-0.35499987499999996,-0.07972760772705077
-0.35000000000000003,0.03812034606933594,-0.349999875,-0.07471723175048828
-0.34500000000000003,0.03712046813964844,-0.344999875,-0.08674213409423828
-0.34,0.03212107849121094,-0.339999875,-0.07772345733642577
-0.335,0.03112120056152344,-0.334999875,-0.07070893096923828
-0.33,0.03312095642089844,-0.329999875,-0.07171100616455078
-0.325,0.03412083435058594,-0.324999875,-0.07471723175048828
-0.32,0.03412083435058594,-0.319999875,-0.06569855499267578
-0.315,0.03512071228027344,-0.314999875,-0.06670063018798827
-0.31,0.043119735717773444,-0.309999875,-0.08774420928955078
-0.305,0.03712046813964844,-0.304999875,-0.07571930694580077
-0.3,0.03012132263183594,-0.29999987499999997,-0.07371515655517578
-0.295,0.02912144470214844,-0.29499987499999997,-0.07571930694580077
-0.29,0.03712046813964844,-0.28999987499999996,-0.07271308135986328
-0.28500000000000003,0.03412083435058594,-0.284999875,-0.06269232940673827
-0.28,0.03212107849121094,-0.279999875,-0.053673652648925776
-0.275,0.02812156677246094,-0.274999875,-0.052671577453613276
-0.27,0.03112120056152344,-0.269999875,-0.04766120147705078
-0.265,0.03112120056152344,-0.264999875,-0.03764044952392578
-0.26,0.03912022399902344,-0.259999875,-0.05667987823486328
-0.255,0.03512071228027344,-0.254999875,-0.052671577453613276
-0.25,0.03812034606933594,-0.249999875,-0.053673652648925776
-0.245,0.03412083435058594,-0.244999875,-0.06068817901611328
-0.24,0.03912022399902344,-0.239999875,-0.06970685577392578
-0.23500000000000001,0.03412083435058594,-0.23499987500000002,-0.05968610382080078
-0.23,0.04411961364746094,-0.22999987500000002,-0.06469647979736327
-0.225,0.04012010192871094,-0.22499987500000002,-0.07070893096923828
-0.22,0.03112120056152344,-0.219999875,-0.06269232940673827
-0.215,0.03512071228027344,-0.214999875,-0.06469647979736327
-0.21,0.03112120056152344,-0.209999875,-0.07471723175048828
-0.20500000000000002,0.03312095642089844,-0.20499987500000003,-0.03162799835205078
-0.2,0.03212107849121094,-0.19999987500000002,0.017473686218261716
-0.195,0.03312095642089844,-0.19499987500000002,0.07960234832763671
-0.19,0.03312095642089844,-0.189999875,0.13672063446044921
-0.185,0.03712046813964844,-0.184999875,0.16377666473388672
-0.18,0.03512071228027344,-0.179999875,0.050542167663574215
-0.17500000000000002,0.03812034606933594,-0.17499987500000003,-0.15889154815673828
-0.17,0.03512071228027344,-0.16999987500000002,-0.2761343460083008
-0.165,0.03612059020996094,-0.16499987500000002,-0.2981800003051758
-0.16,0.03112120056152344,-0.159999875,-0.2921675491333008
-0.155,0.03312095642089844,-0.154999875,-0.24306586456298826
-0.15,0.03612059020996094,-0.149999875,-0.18294135284423826
-0.145,0.03412083435058594,-0.144999875,-0.13784796905517577
-0.14,0.03212107849121094,-0.13999987500000002,-0.09676288604736327
-0.135,0.02912144470214844,-0.13499987500000002,-0.06670063018798827
-0.13,0.03712046813964844,-0.12999987500000001,-0.053673652648925776
-0.125,0.03212107849121094,-0.124999875,-0.04265082550048828
-0.12,0.03312095642089844,-0.11999987499999999,-0.02962384796142578
-0.115,0.03612059020996094,-0.114999875,-0.02962384796142578
-0.11,0.03512071228027344,-0.109999875,-0.03864252471923828
-0.105,0.03612059020996094,-0.10499987499999999,-0.03463422393798828
-0.1,0.03212107849121094,-0.099999875,-0.02862177276611328
-0.095,0.02612181091308594,-0.094999875,-0.03864252471923828
-0.09,0.03412083435058594,-0.089999875,-0.04465497589111328
-0.085,0.03412083435058594,-0.084999875,-0.02160724639892578
-0.08,0.03212107849121094,-0.079999875,-0.03162799835205078
-0.075,0.02912144470214844,-0.074999875,-0.03062592315673828
-0.07,0.03312095642089844,-0.069999875,-0.022609321594238282
-0.065,0.04211985778808594,-0.064999875,-0.02761969757080078
-0.06,0.03112120056152344,-0.059999875,-0.03263007354736328
-0.055,0.03412083435058594,-0.054999875000000004,-0.01960309600830078
-0.05,0.03212107849121094,-0.049999875000000006,-0.02160724639892578
-0.045,0.03212107849121094,-0.044999875,-0.02060517120361328
-0.04,0.03012132263183594,-0.039999875000000004,-0.02060517120361328
-0.035,0.03112120056152344,-0.03499987500000001,-0.002567817687988281
-0.03,0.03312095642089844,-0.029999875,-0.012588569641113281
-0.025,0.03212107849121094,-0.024999875,-0.01559479522705078
-0.02,0.03612059020996094,-0.019999875,0.0014404830932617187
-0.015,0.02912144470214844,-0.014999875,-0.0015657424926757812
-0.01,0.03412083435058594,-0.009999875,-0.00958234405517578
-0.005,0.02712168884277344,-0.004999875,0.003444633483886719
0.0,0.03112120056152344,1.25e-07,0.015469535827636717
0.005,0.03012132263183594,0.005000125,0.011461235046386718
0.01,0.03212107849121094,0.010000125,0.031502738952636715
0.015,0.03212107849121094,0.015000125,0.046533866882324214
0.02,0.03612059020996094,0.020000125,0.035511039733886716
0.025,0.03612059020996094,0.025000125,0.04052141571044922
0.03,0.03112120056152344,0.030000125,0.05455046844482422
0.035,0.03112120056152344,0.035000125,0.051544242858886716
0.04,0.03512071228027344,0.040000125,0.05956084442138672
0.045,0.03512071228027344,0.045000124999999995,0.06156499481201171
0.05,0.03212107849121094,0.050000125,0.07058367156982422
0.055,0.03312095642089844,0.055000125,0.05956084442138672
0.06,0.03812034606933594,0.060000124999999994,0.050542167663574215
0.065,0.04012010192871094,0.065000125,0.05855876922607422
0.07,0.03112120056152344,0.07000012500000001,0.04052141571044922
0.075,0.03512071228027344,0.075000125,0.02248406219482422
0.08,0.03512071228027344,0.080000125,0.015469535827636717
0.085,0.03712046813964844,0.08500012500000001,-0.007578193664550781
0.09,0.03712046813964844,0.090000125,-0.03363214874267578
0.095,0.03312095642089844,0.095000125,-0.03764044952392578
0.1,0.03512071228027344,0.10000012500000001,-0.05567780303955078
0.105,0.03312095642089844,0.105000125,-0.07371515655517578
0.11,0.04012010192871094,0.110000125,-0.08874628448486328
0.115,0.03712046813964844,0.11500012500000001,-0.08674213409423828
0.12,0.03112120056152344,0.120000125,-0.11079193878173828
0.125,0.03212107849121094,0.125000125,-0.11880854034423828
0.13,0.03412083435058594,0.130000125,-0.11379816436767577
0.135,0.03612059020996094,0.135000125,-0.11780646514892577
0.14,0.03112120056152344,0.140000125,-0.12181476593017578
0.145,0.03912022399902344,0.14500012499999998,-0.11880854034423828
0.15,0.03712046813964844,0.15000012499999998,-0.11379816436767577
0.155,0.03912022399902344,0.155000125,-0.12281684112548828
0.16,0.03812034606933594,0.160000125,-0.11480023956298828
0.165,0.03512071228027344,0.165000125,-0.10778571319580077
0.17,0.03112120056152344,0.170000125,-0.10377741241455078
0.17500000000000002,0.03712046813964844,0.175000125,-0.10578156280517578
0.18,0.03512071228027344,0.18000012499999998,-0.09175251007080078
0.185,0.03512071228027344,0.185000125,-0.08974835968017578
0.19,0.02912144470214844,0.190000125,-0.09475873565673827
0.195,0.03512071228027344,0.195000125,-0.08473798370361328
0.2,0.03612059020996094,0.200000125,-0.06469647979736327
0.20500000000000002,0.03512071228027344,0.205000125,-0.08373590850830077
0.21,0.03412083435058594,0.21000012499999998,-0.07471723175048828
0.215,0.03512071228027344,0.215000125,-0.06469647979736327
0.22,0.03412083435058594,0.220000125,-0.06569855499267578
0.225,0.03112120056152344,0.225000125,-0.06770270538330078
0.23,0.03812034606933594,0.230000125,-0.06369440460205078
0.23500000000000001,0.03612059020996094,0.235000125,-0.05667987823486328
0.24,0.041119979858398444,0.24000012499999998,-0.06569855499267578
0.245,0.03612059020996094,0.24500012499999999,-0.05768195343017578
0.25,0.03412083435058594,0.250000125,-0.04365290069580078
0.255,0.02912144470214844,0.255000125,-0.05567780303955078
0.26,0.03512071228027344,0.260000125,-0.06068817901611328
0.265,0.03612059020996094,0.26500012500000003,-0.04665912628173828
0.27,0.03612059020996094,0.27000012500000004,-0.053673652648925776
0.275,0.03812034606933594,0.27500012500000004,-0.06569855499267578
0.28,0.03312095642089844,0.28000012500000004,-0.051669502258300776
0.28500000000000003,0.04211985778808594,0.28500012500000005,-0.05066742706298828
0.29,0.03612059020996094,0.290000125,-0.06770270538330078
0.295,0.04012010192871094,0.295000125,-0.05467572784423828
0.3,0.03712046813964844,0.300000125,-0.05066742706298828
0.305,0.03812034606933594,0.305000125,-0.06870478057861328
0.31,0.03312095642089844,0.310000125,-0.05868402862548828
0.315,0.03412083435058594,0.315000125,-0.04665912628173828
0.32,0.03612059020996094,0.320000125,-0.05768195343017578
0.325,0.03512071228027344,0.32500012500000003,-0.05667987823486328
0.33,0.03712046813964844,0.33000012500000003,-0.051669502258300776
0.335,0.03312095642089844,0.33500012500000004,-0.04064667510986328
0.34,0.03712046813964844,0.34000012500000004,-0.04866327667236328
0.34500000000000003,0.04012010192871094,0.34500012500000005,-0.04565705108642578
0.35000000000000003,0.03612059020996094,0.35000012500000005,-0.04064667510986328
0.355,0.04012010192871094,0.355000125,-0.04966535186767578
0.36,0.03512071228027344,0.360000125,-0.04766120147705078
0.365,0.03912022399902344,0.365000125,-0.03964459991455078
0.37,0.03512071228027344,0.370000125,-0.04866327667236328
0.375,0.03312095642089844,0.375000125,-0.04465497589111328
0.38,0.03612059020996094,0.380000125,-0.03463422393798828
0.385,0.03712046813964844,0.385000125,-0.03263007354736328
0.39,0.03512071228027344,0.39000012500000003,-0.04465497589111328
0.395,0.03912022399902344,0.39500012500000004,-0.04164875030517578
0.4,0.03512071228027344,0.40000012500000004,-0.03162799835205078
0.405,0.03512071228027344,0.40500012500000004,-0.04465497589111328
0.41000000000000003,0.04012010192871094,0.41000012500000005,-0.051669502258300776
0.41500000000000004,0.041119979858398444,0.41500012500000005,-0.04164875030517578
0.42,0.03412083435058594,0.420000125,-0.05066742706298828
0.425,0.041119979858398444,0.425000125,-0.05868402862548828
0.43,0.03212107849121094,0.430000125,-0.04665912628173828
0.435,0.03912022399902344,0.435000125,-0.05667987823486328
0.44,0.03712046813964844,0.440000125,-0.06068817901611328
0.445,0.03712046813964844,0.445000125,-0.051669502258300776
0.45,0.03112120056152344,0.45000012500000003,-0.05868402862548828
0.455,0.03512071228027344,0.45500012500000003,-0.06569855499267578
0.46,0.03912022399902344,0.46000012500000004,-0.06770270538330078
0.465,0.02712168884277344,0.46500012500000004,-0.06269232940673827
0.47000000000000003,0.03712046813964844,0.47000012500000005,-0.07171100616455078
0.47500000000000003,0.03412083435058594,0.47500012500000005,-0.06870478057861328
0.48,0.03112120056152344,0.480000125,-0.05567780303955078
0.485,0.03212107849121094,0.485000125,-0.04966535186767578
0.49,0.041119979858398444,0.490000125,-0.053673652648925776
0.495,0.03512071228027344,0.495000125,-0.04064667510986328
0.5,0.03312095642089844,0.500000125,-0.03363214874267578
0.505,0.03512071228027344,0.505000125,-0.035636299133300776
0.51,0.041119979858398444,0.510000125,-0.04164875030517578
0.515,0.03312095642089844,0.515000125,-0.03062592315673828
0.52,0.03412083435058594,0.520000125,-0.04164875030517578
0.525,0.03212107849121094,0.525000125,-0.04966535186767578
0.53,0.03212107849121094,0.530000125,-0.03764044952392578
0.535,0.03712046813964844,0.535000125,-0.03764044952392578
0.54,0.03412083435058594,0.540000125,-0.052671577453613276
0.545,0.03012132263183594,0.5450001250000001,-0.04465497589111328
0.55,0.03412083435058594,0.5500001250000001,-0.04164875030517578
0.555,0.03312095642089844,0.5550001250000001,-0.05467572784423828
0.56,0.03412083435058594,0.5600001250000001,-0.05066742706298828
0.5650000000000001,0.04012010192871094,0.5650001250000001,-0.03062592315673828
0.5700000000000001,0.043119735717773444,0.5700001250000001,0.005448783874511719
0.5750000000000001,0.02612181091308594,0.5750001250000001,0.05855876922607422
0.58,0.03212107849121094,0.580000125,0.1427330856323242
0.585,0.03112120056152344,0.585000125,0.17880779266357422
0.59,0.03312095642089844,0.590000125,0.12669988250732422
0.595,0.041119979858398444,0.595000125,-0.02761969757080078
0.6,0.041119979858398444,0.600000125,-0.21701190948486326
0.605,0.03612059020996094,0.605000125,-0.2981800003051758
0.61,0.03312095642089844,0.610000125,-0.30920282745361327
0.615,0.03912022399902344,0.615000125,-0.27413019561767576
0.62,0.03412083435058594,0.620000125,-0.22903681182861327
0.625,0.03812034606933594,0.625000125,-0.16891230010986327
0.63,0.03712046813964844,0.630000125,-0.11179401397705077
0.635,0.02612181091308594,0.635000125,-0.07271308135986328
0.64,0.03412083435058594,0.640000125,-0.05868402862548828
0.645,0.04012010192871094,0.645000125,-0.03062592315673828
0.65,0.03912022399902344,0.650000125,-0.03263007354736328
0.655,0.03212107849121094,0.655000125,-0.03864252471923828
0.66,0.03412083435058594,0.660000125,-0.03663837432861328
0.665,0.03312095642089844,0.665000125,-0.01659687042236328
0.67,0.03012132263183594,0.6700001250000001,-0.03263007354736328
0.675,0.02712168884277344,0.6750001250000001,-0.02060517120361328
0.68,0.03912022399902344,0.6800001250000001,-0.01459272003173828
0.685,0.02912144470214844,0.6850001250000001,-0.01759894561767578
0.6900000000000001,0.03512071228027344,0.6900001250000001,-0.02661762237548828
0.6950000000000001,0.03012132263183594,0.6950001250000001,-0.01559479522705078
0.7000000000000001,0.03312095642089844,0.7000001250000001,-0.01860102081298828
0.705,0.03312095642089844,0.705000125,-0.02761969757080078
0.71,0.03712046813964844,0.710000125,-0.02060517120361328
0.715,0.03512071228027344,0.715000125,-0.01559479522705078
0.72,0.03712046813964844,0.720000125,-0.02160724639892578
0.725,0.03412083435058594,0.725000125,-0.022609321594238282
0.73,0.03112120056152344,0.730000125,-0.01459272003173828
0.735,0.03212107849121094,0.735000125,-0.008580268859863282
0.74,0.03412083435058594,0.740000125,-0.022609321594238282
0.745,0.03512071228027344,0.745000125,-0.01359064483642578
0.75,0.03612059020996094,0.750000125,-0.002567817687988281
0.755,0.03712046813964844,0.755000125,-0.012588569641113281
0.76,0.03212107849121094,0.760000125,-0.01058441925048828
0.765,0.03312095642089844,0.765000125,0.004446708679199218
0.77,0.03412083435058594,0.770000125,0.003444633483886719
0.775,0.03412083435058594,0.775000125,0.008455009460449218
0.78,0.03012132263183594,0.780000125,0.01647161102294922
0.785,0.03412083435058594,0.785000125,0.033506889343261716
0.79,0.03612059020996094,0.790000125,0.026492362976074216
0.795,0.02912144470214844,0.7950001250000001,0.04152349090576172
0.8,0.02812156677246094,0.8000001250000001,0.05455046844482422
0.805,0.03212107849121094,0.8050001250000001,0.04452971649169922
0.81,0.03112120056152344,0.8100001250000001,0.047535942077636714
0.8150000000000001,0.03712046813964844,0.8150001250000001,0.06857952117919922
0.8200000000000001,0.03412083435058594,0.8200001250000001,0.06256707000732421
0.8250000000000001,0.02612181091308594,0.8250001250000001,0.05755669403076172
0.8300000000000001,0.02812156677246094,0.8300001250000001,0.06657537078857421
0.835,0.03312095642089844,0.835000125,0.051544242858886716
0.84,0.03112120056152344,0.840000125,0.03851726531982422
0.845,0.02812156677246094,0.845000125,0.034508964538574216
0.85,0.03612059020996094,0.850000125,0.029498588562011718
0.855,0.02912144470214844,0.855000125,-0.007578193664550781
0.86,0.03212107849121094,0.860000125,-0.02761969757080078
0.865,0.02912144470214844,0.865000125,-0.03964459991455078
0.87,0.03112120056152344,0.870000125,-0.06469647979736327
0.875,0.03312095642089844,0.875000125,-0.08874628448486328
0.88,0.03512071228027344,0.880000125,-0.09676288604736327
0.885,0.03712046813964844,0.885000125,-0.11179401397705077
0.89,0.03112120056152344,0.890000125,-0.13985211944580078
0.895,0.03412083435058594,0.895000125,-0.1328375930786133
0.9,0.03112120056152344,0.900000125,-0.13383966827392577
0.905,0.03012132263183594,0.905000125,-0.14887079620361326
0.91,0.03112120056152344,0.910000125,-0.14185626983642577
0.915,0.03412083435058594,0.915000125,-0.13183551788330078
0.92,0.03312095642089844,0.9200001250000001,-0.1328375930786133
0.925,0.03212107849121094,0.9250001250000001,-0.1328375930786133
0.93,0.03112120056152344,0.9300001250000001,-0.12381891632080078
0.935,0.03212107849121094,0.9350001250000001,-0.12482099151611327
0.9400000000000001,0.03212107849121094,0.9400001250000001,-0.13584381866455078
0.9450000000000001,0.02912144470214844,0.9450001250000001,-0.11981061553955077
0.9500000000000001,0.03512071228027344,0.9500001250000001,-0.11981061553955077
0.9550000000000001,0.03812034606933594,0.9550001250000001,-0.12281684112548828
0.96,0.03312095642089844,0.960000125,-0.11780646514892577
0.965,0.03312095642089844,0.965000125,-0.10678363800048828
0.97,0.02612181091308594,0.970000125,-0.11179401397705077
0.975,0.03612059020996094,0.975000125,-0.11079193878173828
0.98,0.03312095642089844,0.980000125,-0.09676288604736327
0.985,0.03412083435058594,0.985000125,-0.10678363800048828
0.99,0.03912022399902344,0.990000125,-0.10277533721923827
0.995,0.03412083435058594,0.995000125,-0.09676288604736327
1.0,0.03412083435058594,1.000000125,-0.09676288604736327
1.0050000000000001,0.03412083435058594,1.005000125,-0.10077118682861327
1.01,0.03412083435058594,1.010000125,-0.09576081085205078
1.0150000000000001,0.03812034606933594,1.015000125,-0.08072968292236328
1.02,0.03112120056152344,1.020000125,-0.08473798370361328
1.025,0.03812034606933594,1.0250001249999998,-0.09075043487548828
1.03,0.03812034606933594,1.030000125,-0.07171100616455078
1.035,0.03212107849121094,1.0350001249999998,-0.08173175811767577
1.04,0.04012010192871094,1.040000125,-0.09075043487548828
1.045,0.02812156677246094,1.0450001249999998,-0.07772345733642577
1.05,0.03012132263183594,1.050000125,-0.07772345733642577
1.055,0.03612059020996094,1.0550001249999998,-0.08974835968017578
1.06,0.03312095642089844,1.060000125,-0.07171100616455078
1.065,0.02612181091308594,1.0650001249999999,-0.07271308135986328
1.07,0.03112120056152344,1.070000125,-0.08072968292236328
1.075,0.03012132263183594,1.0750001249999999,-0.08473798370361328
1.08,0.03612059020996094,1.080000125,-0.07271308135986328
1.085,0.03012132263183594,1.0850001249999999,-0.08373590850830077
1.09,0.02412205505371094,1.090000125,-0.08574005889892578
1.095,0.03212107849121094,1.0950001249999999,-0.07571930694580077
1.1,0.03312095642089844,1.100000125,-0.06970685577392578
1.105,0.02812156677246094,1.1050001249999999,-0.07972760772705077
1.11,0.03312095642089844,1.110000125,-0.06770270538330078
1.115,0.03412083435058594,1.115000125,-0.05968610382080078
1.12,0.02912144470214844,1.120000125,-0.07070893096923828
1.125,0.03312095642089844,1.125000125,-0.07471723175048828
1.1300000000000001,0.03512071228027344,1.130000125,-0.06670063018798827
1.135,0.03312095642089844,1.135000125,-0.06469647979736327
1.1400000000000001,0.03812034606933594,1.140000125,-0.08173175811767577
1.145,0.03012132263183594,1.145000125,-0.07171100616455078
1.1500000000000001,0.03712046813964844,1.150000125,-0.06870478057861328
1.155,0.03412083435058594,1.155000125,-0.07171100616455078
1.16,0.03512071228027344,1.1600001249999998,-0.07371515655517578
1.165,0.03212107849121094,1.165000125,-0.06369440460205078
1.17,0.02912144470214844,1.1700001249999998,-0.06569855499267578
1.175,0.03512071228027344,1.175000125,-0.07772345733642577
1.18,0.03012132263183594,1.1800001249999998,-0.06269232940673827
1.185,0.03512071228027344,1.185000125,-0.06770270538330078
1.19,0.03312095642089844,1.1900001249999999,-0.08473798370361328
1.195,0.03112120056152344,1.195000125,-0.06970685577392578
1.2,0.03212107849121094,1.2000001249999999,-0.07271308135986328
1.205,0.03612059020996094,1.205000125,-0.07972760772705077
1.21,0.03012132263183594,1.2100001249999999,-0.08273383331298828
1.215,0.02912144470214844,1.215000125,-0.06569855499267578
1.22,0.03312095642089844,1.2200001249999999,-0.07271308135986328
1.225,0.03112120056152344,1.225000125,-0.07672138214111328
1.23,0.02912144470214844,1.2300001249999999,-0.07371515655517578
1.235,0.02912144470214844,1.235000125,-0.06870478057861328
1.24,0.04012010192871094,1.240000125,-0.07672138214111328
1.245,0.03412083435058594,1.245000125,-0.07070893096923828
1.25,0.03512071228027344,1.250000125,-0.06269232940673827
1.2550000000000001,0.03212107849121094,1.255000125,-0.07371515655517578
1.26,0.03212107849121094,1.260000125,-0.07371515655517578
1.2650000000000001,0.03712046813964844,1.265000125,-0.06770270538330078
1.27,0.03212107849121094,1.270000125,-0.07672138214111328
1.2750000000000001,0.03112120056152344,1.275000125,-0.08273383331298828
1.28,0.03412083435058594,1.280000125,-0.06569855499267578
1.285,0.03512071228027344,1.2850001249999998,-0.05667987823486328
1.29,0.03412083435058594,1.290000125,-0.06670063018798827
1.295,0.02812156677246094,1.2950001249999998,-0.05467572784423828
1.3,0.03212107849121094,1.300000125,-0.052671577453613276
1.305,0.03512071228027344,1.3050001249999998,-0.05768195343017578
1.31,0.03312095642089844,1.310000125,-0.05968610382080078
1.315,0.03512071228027344,1.3150001249999999,-0.04766120147705078
1.32,0.03712046813964844,1.320000125,-0.07271308135986328
1.325,0.03412083435058594,1.3250001249999999,-0.07271308135986328
1.33,0.03712046813964844,1.330000125,-0.06068817901611328
1.335,0.03312095642089844,1.3350001249999999,-0.06569855499267578
1.34,0.03012132263183594,1.340000125,-0.07070893096923828
1.345,0.03412083435058594,1.3450001249999999,-0.06569855499267578
1.35,0.03212107849121094,1.350000125,-0.05868402862548828
1.355,0.03412083435058594,1.3550001249999999,-0.06670063018798827
1.36,0.03012132263183594,1.360000125,-0.05868402862548828
1.365,0.03412083435058594,1.365000125,-0.005574043273925781
1.37,0.03612059020996094,1.370000125,0.05655461883544922
1.375,0.041119979858398444,1.375000125,0.12469573211669921
1.3800000000000001,0.03312095642089844,1.380000125,0.1697891159057617
1.385,0.03112120056152344,1.385000125,0.10164800262451171
1.3900000000000001,0.02912144470214844,1.390000125,-0.09075043487548828
1.395,0.03512071228027344,1.395000125,-0.27112397003173827
1.4000000000000001,0.02912144470214844,1.400000125,-0.31621735382080074
1.405,0.02712168884277344,1.405000125,-0.32423395538330074
1.41,0.03412083435058594,1.4100001249999998,-0.28615509796142574
1.415,0.03112120056152344,1.415000125,-0.22102021026611327
1.42,0.03312095642089844,1.4200001249999998,-0.16590607452392578
1.425,0.02812156677246094,1.425000125,-0.12281684112548828
1.43,0.03612059020996094,1.4300001249999998,-0.06770270538330078
1.435,0.03312095642089844,1.435000125,-0.04966535186767578
1.44,0.04012010192871094,1.4400001249999999,-0.03663837432861328
1.445,0.03412083435058594,1.445000125,-0.03062592315673828
1.45,0.03812034606933594,1.4500001249999999,-0.01960309600830078
1.455,0.03612059020996094,1.455000125,-0.01860102081298828
1.46,0.03312095642089844,1.4600001249999999,-0.02761969757080078
1.465,0.03312095642089844,1.465000125,-0.01960309600830078
1.47,0.03612059020996094,1.4700001249999999,-0.02361139678955078
1.475,0.03312095642089844,1.475000125,-0.02461347198486328
1.48,0.03712046813964844,1.4800001249999999,-0.01559479522705078
1.485,0.03712046813964844,1.485000125,-0.01860102081298828
1.49,0.03712046813964844,1.490000125,-0.02761969757080078
1.495,0.03312095642089844,1.495000125,-0.01359064483642578
1.5,0.03712046813964844,1.500000125,-0.011586494445800781
1.5050000000000001,0.03212107849121094,1.505000125,-0.02761969757080078
1.51,0.03312095642089844,1.510000125,-0.022609321594238282
1.5150000000000001,0.03212107849121094,1.515000125,-0.006576118469238281
1.52,0.03312095642089844,1.520000125,-0.01359064483642578
1.5250000000000001,0.03512071228027344,1.525000125,-0.01759894561767578
1.53,0.03112120056152344,1.530000125,-0.012588569641113281
1.5350000000000001,0.03212107849121094,1.535000125,-0.005574043273925781
1.54,0.03512071228027344,1.540000125,-0.01359064483642578
1.545,0.03412083435058594,1.5450001249999998,0.0014404830932617187
1.55,0.03812034606933594,1.550000125,0.005448783874511719
1.555,0.03612059020996094,1.5550001249999998,0.004446708679199218
1.56,0.02812156677246094,1.560000125,0.003444633483886719
1.565,0.03212107849121094,1.5650001249999999,0.02248406219482422
1.57,0.03412083435058594,1.570000125,0.010459159851074219
1.575,0.03212107849121094,1.5750001249999999,0.013465385437011718
1.58,0.03412083435058594,1.580000125,0.03951934051513672
1.585,0.03412083435058594,1.5850001249999999,0.04152349090576172
1.59,0.03112120056152344,1.590000125,0.04252556610107422
1.595,0.03212107849121094,1.5950001249999999,0.053548393249511717
1.6,0.03012132263183594,1.600000125,0.053548393249511717
1.605,0.03712046813964844,1.6050001249999999,0.051544242858886716
1.61,0.03412083435058594,1.610000125,0.05555254364013672
1.615,0.03112120056152344,1.615000125,0.06256707000732421
1.62,0.03512071228027344,1.620000125,0.05555254364013672
1.625,0.03512071228027344,1.625000125,0.05655461883544922
1.6300000000000001,0.03112120056152344,1.630000125,0.050542167663574215
1.635,0.02912144470214844,1.635000125,0.047535942077636714
1.6400000000000001,0.03412083435058594,1.640000125,0.029498588562011718
1.645,0.03512071228027344,1.645000125,0.01647161102294922
1.6500000000000001,0.03712046813964844,1.650000125,0.0014404830932617187
1.655,0.03012132263183594,1.655000125,-0.02962384796142578
1.6600000000000001,0.03812034606933594,1.660000125,-0.04565705108642578
1.665,0.02512193298339844,1.665000125,-0.06068817901611328
1.67,0.03412083435058594,1.6700001249999998,-0.08874628448486328
1.675,0.02812156677246094,1.675000125,-0.09576081085205078
1.68,0.03212107849121094,1.6800001249999998,-0.10778571319580077
1.685,0.03612059020996094,1.685000125,-0.10678363800048828
1.69,0.03212107849121094,1.6900001249999999,-0.12682514190673827
1.695,0.03412083435058594,1.695000125,-0.12582306671142576
1.7,0.03112120056152344,1.7000001249999999,-0.12181476593017578
1.705,0.03312095642089844,1.705000125,-0.12882929229736328
1.71,0.03212107849121094,1.7100001249999999,-0.13183551788330078
1.715,0.02812156677246094,1.715000125,-0.12582306671142576
1.72,0.02812156677246094,1.7200001249999999,-0.1328375930786133
1.725,0.03512071228027344,1.725000125,-0.13083344268798827
1.73,0.03412083435058594,1.7300001249999999,-0.12181476593017578
1.735,0.03212107849121094,1.735000125,-0.12281684112548828
1.74,0.03412083435058594,1.740000125,-0.12782721710205078
1.745,0.041119979858398444,1.745000125,-0.11981061553955077
1.75,0.03512071228027344,1.750000125,-0.11680438995361328
1.7550000000000001,0.03412083435058594,1.755000125,-0.12983136749267576
1.76,0.03812034606933594,1.760000125,-0.11780646514892577
1.7650000000000001,0.03612059020996094,1.765000125,-0.10678363800048828
1.77,0.03612059020996094,1.770000125,-0.10578156280517578
1.7750000000000001,0.03212107849121094,1.775000125,-0.11079193878173828
1.78,0.03612059020996094,1.780000125,-0.09976911163330078
1.7850000000000001,0.03512071228027344,1.785000125,-0.09776496124267578
1.79,0.03912022399902344,1.790000125,-0.10778571319580077
1.795,0.03912022399902344,1.7950001249999998,-0.10578156280517578
1.8,0.03612059020996094,1.800000125,-0.09576081085205078
1.805,0.03612059020996094,1.8050001249999998,-0.10277533721923827
1.81,0.03612059020996094,1.810000125,-0.10778571319580077
1.815,0.03312095642089844,1.8150001249999999,-0.09976911163330078
1.82,0.03112120056152344,1.820000125,-0.10277533721923827
1.825,0.03612059020996094,1.8250001249999999,-0.10277533721923827
1.83,0.04012010192871094,1.830000125,-0.09676288604736327
1.835,0.03112120056152344,1.8350001249999999,-0.08874628448486328
1.84,0.03512071228027344,1.840000125,-0.09576081085205078
1.845,0.03512071228027344,1.8450001249999999,-0.08774420928955078
1.85,0.03912022399902344,1.850000125,-0.08874628448486328
1.855,0.03612059020996094,1.8550001249999999,-0.10477948760986328
1.86,0.03512071228027344,1.860000125,-0.09375666046142578
1.865,0.03412083435058594,1.865000125,-0.08574005889892578
1.87,0.02612181091308594,1.870000125,-0.09475873565673827
1.875,0.03312095642089844,1.875000125,-0.09275458526611327
1.8800000000000001,0.03812034606933594,1.880000125,-0.08574005889892578
1.885,0.03512071228027344,1.885000125,-0.07772345733642577
1.8900000000000001,0.03112120056152344,1.890000125,-0.08774420928955078
1.895,0.03512071228027344,1.895000125,-0.08173175811767577
1.9000000000000001,0.02912144470214844,1.900000125,-0.07171100616455078
1.905,0.03212107849121094,1.905000125,-0.08574005889892578
1.9100000000000001,0.03412083435058594,1.910000125,-0.08473798370361328
1.915,0.03512071228027344,1.915000125,-0.07171100616455078
1.92,0.03612059020996094,1.9200001249999998,-0.07772345733642577
1.925,0.03412083435058594,1.925000125,-0.08674213409423828
1.93,0.03412083435058594,1.9300001249999998,-0.07672138214111328
1.935,0.03512071228027344,1.935000125,-0.07371515655517578
1.94,0.03712046813964844,1.9400001249999999,-0.07672138214111328
1.945,0.03712046813964844,1.945000125,-0.06469647979736327
1.95,0.03712046813964844,1.9500001249999999,-0.06269232940673827
1.955,0.03412083435058594,1.955000125,-0.08072968292236328
1.96,0.03412083435058594,1.9600001249999999,-0.08072968292236328
1.965,0.03712046813964844,1.965000125,-0.06469647979736327
1.97,0.03912022399902344,1.9700001249999999,-0.06870478057861328
1.975,0.041119979858398444,1.975000125,-0.07171100616455078
1.98,0.03312095642089844,1.9800001249999999,-0.05768195343017578
1.985,0.03412083435058594,1.985000125,-0.05768195343017578
1.99,0.03212107849121094,1.990000125,-0.07371515655517578
1.995,0.03112120056152344,1.995000125,-0.05968610382080078
2.0,0.03412083435058594,2.000000125,-0.06269232940673827
2.005,0.03712046813964844,2.005000125,-0.07271308135986328
2.0100000000000002,0.03412083435058594,2.0100001250000004,-0.06670063018798827
2.015,0.03112120056152344,2.0150001250000003,-0.06770270538330078
2.02,0.03312095642089844,2.020000125,-0.06469647979736327
2.025,0.03412083435058594,2.025000125,-0.06970685577392578
2.0300000000000002,0.03512071228027344,2.0300001250000004,-0.06469647979736327
2.035,0.03912022399902344,2.0350001250000003,-0.07171100616455078
2.04,0.03212107849121094,2.040000125,-0.08173175811767577
2.045,0.03112120056152344,2.045000125,-0.06770270538330078
2.05,0.03512071228027344,2.050000125,-0.06770270538330078
2.055,0.03312095642089844,2.0550001250000003,-0.07672138214111328
2.06,0.02912144470214844,2.060000125,-0.08574005889892578
2.065,0.03512071228027344,2.065000125,-0.06369440460205078
2.07,0.03412083435058594,2.070000125,-0.06269232940673827
2.075,0.03612059020996094,2.0750001250000003,-0.06770270538330078
2.08,0.03712046813964844,2.080000125,-0.05667987823486328
2.085,0.03712046813964844,2.085000125,-0.06670063018798827
2.09,0.04012010192871094,2.090000125,-0.07371515655517578
2.095,0.03112120056152344,2.0950001250000003,-0.06970685577392578
2.1,0.03612059020996094,2.100000125,-0.06870478057861328
2.105,0.03212107849121094,2.105000125,-0.08574005889892578
2.11,0.03212107849121094,2.110000125,-0.08072968292236328
2.115,0.03312095642089844,2.1150001250000003,-0.06770270538330078
2.12,0.03212107849121094,2.1200001250000002,-0.06770270538330078
2.125,0.03312095642089844,2.125000125,-0.07571930694580077
2.13,0.03712046813964844,2.130000125,-0.07070893096923828
2.1350000000000002,0.03612059020996094,2.1350001250000004,-0.06269232940673827
2.14,0.03412083435058594,2.1400001250000003,-0.06870478057861328
2.145,0.03412083435058594,2.145000125,-0.03363214874267578
2.15,0.041119979858398444,2.150000125,0.035511039733886716
2.1550000000000002,0.03912022399902344,2.1550001250000004,0.08661687469482421
2.16,0.03312095642089844,2.1600001250000003,0.13772270965576172
2.165,0.03812034606933594,2.165000125,0.1467413864135742
2.17,0.03812034606933594,2.170000125,0.018475761413574217
2.1750000000000003,0.03512071228027344,2.1750001250000004,-0.17191852569580077
2.18,0.03512071228027344,2.1800001250000003,-0.28014264678955075
2.185,0.03512071228027344,2.185000125,-0.29417169952392574
2.19,0.03712046813964844,2.190000125,-0.28214679718017577
2.195,0.03812034606933594,2.195000125,-0.22703266143798828
2.2,0.045119491577148445,2.2000001250000003,-0.1709164505004883
2.205,0.03712046813964844,2.205000125,-0.13083344268798827
2.21,0.03312095642089844,2.210000125,-0.08674213409423828
2.215,0.03412083435058594,2.215000125,-0.053673652648925776
2.22,0.03512071228027344,2.2200001250000003,-0.05567780303955078
2.225,0.03612059020996094,2.225000125,-0.04365290069580078
2.23,0.03512071228027344,2.230000125,-0.035636299133300776
2.235,0.03712046813964844,2.235000125,-0.03363214874267578
2.24,0.03012132263183594,2.2400001250000003,-0.04365290069580078
2.245,0.03212107849121094,2.2450001250000002,-0.03162799835205078
2.25,0.03512071228027344,2.250000125,-0.02661762237548828
2.255,0.04012010192871094,2.255000125,-0.04365290069580078
2.2600000000000002,0.03712046813964844,2.2600001250000004,-0.03463422393798828
2.265,0.03712046813964844,2.2650001250000003,-0.02561554718017578
2.27,0.03112120056152344,2.270000125,-0.03363214874267578
2.275,0.03912022399902344,2.275000125,-0.03363214874267578
2.2800000000000002,0.03312095642089844,2.2800001250000004,-0.02361139678955078
2.285,0.03112120056152344,2.2850001250000003,-0.02661762237548828
2.29,0.03412083435058594,2.290000125,-0.03363214874267578
2.295,0.03412083435058594,2.295000125,-0.01960309600830078
2.3000000000000003,0.03412083435058594,2.3000001250000004,-0.02060517120361328
2.305,0.03312095642089844,2.3050001250000003,-0.03062592315673828
2.31,0.03312095642089844,2.310000125,-0.02561554718017578
2.315,0.03412083435058594,2.315000125,-0.01559479522705078
2.32,0.03312095642089844,2.320000125,-0.022609321594238282
2.325,0.03612059020996094,2.3250001250000003,-0.02461347198486328
2.33,0.03012132263183594,2.330000125,-0.01058441925048828
2.335,0.03612059020996094,2.335000125,-0.008580268859863282
2.34,0.03212107849121094,2.340000125,-0.008580268859863282
2.345,0.03212107849121094,2.3450001250000003,0.0014404830932617187
2.35,0.03712046813964844,2.350000125,0.011461235046386718
2.355,0.04012010192871094,2.355000125,0.006450859069824218
2.36,0.03512071228027344,2.360000125,0.015469535827636717
2.365,0.03312095642089844,2.3650001250000003,0.034508964538574216
2.37,0.03612059020996094,2.3700001250000002,0.027494438171386717
2.375,0.03212107849121094,2.375000125,0.032504814147949215
2.38,0.02912144470214844,2.380000125,0.05655461883544922
2.3850000000000002,0.03412083435058594,2.3850001250000004,0.06156499481201171
2.39,0.03212107849121094,2.3900001250000003,0.051544242858886716
2.395,0.03012132263183594,2.395000125,0.06557329559326172
2.4,0.03412083435058594,2.400000125,0.07158574676513671
2.4050000000000002,0.03712046813964844,2.4050001250000004,0.06256707000732421
2.41,0.03212107849121094,2.4100001250000003,0.05755669403076172
2.415,0.03712046813964844,2.415000125,0.05855876922607422
2.42,0.03712046813964844,2.420000125,0.04553179168701171
2.4250000000000003,0.03412083435058594,2.4250001250000004,0.02348613739013672
2.43,0.03512071228027344,2.4300001250000003,0.010459159851074219
2.435,0.03612059020996094,2.435000125,-0.003569892883300781
2.44,0.03612059020996094,2.440000125,-0.03062592315673828
2.445,0.03412083435058594,2.445000125,-0.04766120147705078
2.45,0.03212107849121094,2.4500001250000003,-0.05667987823486328
2.455,0.03612059020996094,2.455000125,-0.08072968292236328
2.46,0.03112120056152344,2.460000125,-0.08974835968017578
2.465,0.03012132263183594,2.465000125,-0.09676288604736327
2.47,0.03612059020996094,2.4700001250000003,-0.10978986358642577
2.475,0.03312095642089844,2.475000125,-0.11680438995361328
2.48,0.03412083435058594,2.480000125,-0.10578156280517578
2.485,0.043119735717773444,2.485000125,-0.10778571319580077
2.49,0.03012132263183594,2.4900001250000003,-0.12081269073486328
2.495,0.03612059020996094,2.4950001250000002,-0.11880854034423828
2.5,0.02912144470214844,2.500000125,-0.11680438995361328
2.505,0.03412083435058594,2.505000125,-0.11780646514892577
2.5100000000000002,0.03412083435058594,2.5100001250000004,-0.11981061553955077
2.515,0.03612059020996094,2.5150001250000003,-0.10277533721923827
2.52,0.03712046813964844,2.520000125,-0.10077118682861327
2.525,0.03712046813964844,2.525000125,-0.09876703643798827
2.5300000000000002,0.03712046813964844,2.5300001250000004,-0.08674213409423828
2.535,0.03612059020996094,2.5350001250000003,-0.08473798370361328
2.54,0.03012132263183594,2.540000125,-0.09776496124267578
2.545,0.03512071228027344,2.545000125,-0.08574005889892578
2.5500000000000003,0.03212107849121094,2.5500001250000004,-0.07972760772705077
2.555,0.03312095642089844,2.5550001250000003,-0.08273383331298828
2.56,0.03412083435058594,2.560000125,-0.08072968292236328
2.565,0.03812034606933594,2.565000125,-0.06670063018798827
2.57,0.03412083435058594,2.570000125,-0.07471723175048828
2.575,0.03812034606933594,2.5750001250000003,-0.07171100616455078
2.58,0.03312095642089844,2.580000125,-0.05968610382080078
2.585,0.02712168884277344,2.585000125,-0.06469647979736327
2.59,0.03312095642089844,2.590000125,-0.07271308135986328
2.595,0.03812034606933594,2.5950001250000003,-0.06569855499267578
2.6,0.03812034606933594,2.600000125,-0.06169025421142578
2.605,0.03912022399902344,2.605000125,-0.07070893096923828
2.61,0.03612059020996094,2.610000125,-0.06068817901611328
2.615,0.03712046813964844,2.6150001250000003,-0.052671577453613276
2.62,0.041119979858398444,2.6200001250000002,-0.05768195343017578
2.625,0.03412083435058594,2.625000125,-0.06770270538330078
2.63,0.03312095642089844,2.630000125,-0.05467572784423828
2.6350000000000002,0.04211985778808594,2.6350001250000004,-0.06670063018798827
2.64,0.03412083435058594,2.6400001250000003,-0.07171100616455078
2.645,0.03912022399902344,2.645000125,-0.06970685577392578
2.65,0.03312095642089844,2.650000125,-0.06569855499267578
2.6550000000000002,0.03612059020996094,2.6550001250000004,-0.06770270538330078
2.66,0.04012010192871094,2.6600001250000003,-0.07371515655517578
2.665,0.03212107849121094,2.665000125,-0.05968610382080078
2.67,0.03812034606933594,2.670000125,-0.05868402862548828
2.6750000000000003,0.03112120056152344,2.6750001250000004,-0.06569855499267578
2.68,0.03612059020996094,2.6800001250000003,-0.06469647979736327
2.685,0.03512071228027344,2.685000125,-0.06269232940673827
2.69,0.03212107849121094,2.690000125,-0.07271308135986328
2.695,0.03512071228027344,2.695000125,-0.06469647979736327
2.7,0.03212107849121094,2.7000001250000003,-0.06068817901611328
2.705,0.03112120056152344,2.705000125,-0.06770270538330078
2.71,0.03112120056152344,2.710000125,-0.06670063018798827
2.715,0.03312095642089844,2.715000125,-0.06068817901611328
2.72,0.03712046813964844,2.7200001250000003,-0.06770270538330078
2.725,0.03212107849121094,2.725000125,-0.07772345733642577
2.73,0.04012010192871094,2.730000125,-0.05968610382080078
2.735,0.03112120056152344,2.735000125,-0.06269232940673827
2.74,0.03312095642089844,2.7400001250000003,-0.07972760772705077
2.745,0.03312095642089844,2.7450001250000002,-0.07271308135986328
2.75,0.02812156677246094,2.750000125,-0.06770270538330078
2.755,0.03512071228027344,2.755000125,-0.06970685577392578
2.7600000000000002,0.03812034606933594,2.7600001250000004,-0.06770270538330078
2.765,0.03212107849121094,2.7650001250000003,-0.06169025421142578
2.77,0.03012132263183594,2.770000125,-0.05968610382080078
2.775,0.03312095642089844,2.775000125,-0.06469647979736327
2.7800000000000002,0.03312095642089844,2.7800001250000004,-0.05768195343017578
2.785,0.03312095642089844,2.7850001250000003,-0.06269232940673827
2.79,0.03712046813964844,2.790000125,-0.07371515655517578
2.795,0.03712046813964844,2.795000125,-0.06269232940673827
2.8000000000000003,0.03112120056152344,2.8000001250000004,-0.052671577453613276
2.805,0.03912022399902344,2.8050001250000003,-0.06369440460205078
2.81,0.04211985778808594,2.810000125,-0.05667987823486328
2.815,0.03712046813964844,2.815000125,-0.04766120147705078
2.82,0.03412083435058594,2.820000125,-0.05467572784423828
2.825,0.03312095642089844,2.8250001250000003,-0.05868402862548828
2.83,0.03512071228027344,2.830000125,-0.04565705108642578
2.835,0.03812034606933594,2.835000125,-0.04966535186767578
2.84,0.03112120056152344,2.840000125,-0.051669502258300776
2.845,0.03212107849121094,2.8450001250000003,-0.053673652648925776
2.85,0.03212107849121094,2.850000125,-0.04365290069580078
2.855,0.03512071228027344,2.855000125,-0.06369440460205078
2.86,0.03712046813964844,2.860000125,-0.06169025421142578
2.865,0.03712046813964844,2.8650001250000003,-0.051669502258300776
2.87,0.03212107849121094,2.8700001250000002,-0.06068817901611328
2.875,0.03212107849121094,2.875000125,-0.07171100616455078
2.88,0.03212107849121094,2.880000125,-0.05667987823486328
2.8850000000000002,0.03912022399902344,2.8850001250000004,-0.052671577453613276
2.89,0.03512071228027344,2.8900001250000003,-0.053673652648925776
2.895,0.03312095642089844,2.895000125,-0.03964459991455078
2.9,0.02812156677246094,2.900000125,-0.03363214874267578
2.9050000000000002,0.04211985778808594,2.9050001250000004,-0.04064667510986328
2.91,0.03012132263183594,2.9100001250000003,-0.04766120147705078
2.915,0.04012010192871094,2.915000125,-0.04565705108642578
2.92,0.03412083435058594,2.920000125,-0.05567780303955078
2.9250000000000003,0.04012010192871094,2.9250001250000004,-0.06670063018798827
2.93,0.03112120056152344,2.9300001250000003,-0.06469647979736327
2.935,0.03712046813964844,2.935000125,-0.06068817901611328
2.94,0.03712046813964844,2.940000125,-0.08072968292236328
2.945,0.03612059020996094,2.945000125,-0.07271308135986328
2.95,0.03212107849121094,2.9500001250000003,-0.06469647979736327
2.955,0.04211985778808594,2.955000125,-0.07672138214111328
2.96,0.04411961364746094,2.960000125,-0.06770270538330078
2.965,0.03712046813964844,2.965000125,-0.02361139678955078
2.97,0.03212107849121094,2.9700001250000003,0.03651311492919922
2.975,0.03812034606933594,2.975000125,0.11267082977294922
2.98,0.03512071228027344,2.980000125,0.1737974166870117
2.985,0.04012010192871094,2.985000125,0.14573931121826172
2.99,0.03912022399902344,2.9900001250000003,-0.02060517120361328
2.995,0.03112120056152344,2.9950001250000002,-0.22803473663330076
3.0,0.03812034606933594,3.000000125,-0.33124848175048827
3.005,0.03712046813964844,3.005000125,-0.35930658721923825
3.0100000000000002,0.03912022399902344,3.0100001250000004,-0.32423395538330074
3.015,0.03312095642089844,3.0150001250000003,-0.2701218948364258
3.02,0.041119979858398444,3.020000125,-0.20899530792236326
3.025,0.03312095642089844,3.025000125,-0.15488324737548828
3.0300000000000002,0.03312095642089844,3.0300001250000004,-0.08574005889892578
3.035,0.03712046813964844,3.0350001250000003,-0.05968610382080078
3.04,0.02812156677246094,3.040000125,-0.04665912628173828
3.045,0.03612059020996094,3.045000125,-0.02862177276611328
3.0500000000000003,0.02712168884277344,3.0500001250000004,-0.01058441925048828
3.055,0.03212107849121094,3.0550001250000003,-0.02060517120361328
3.06,0.03512071228027344,3.060000125,-0.01659687042236328
3.065,0.03412083435058594,3.065000125,-0.011586494445800781
3.0700000000000003,0.04012010192871094,3.0700001250000004,-0.01459272003173828
3.075,0.03912022399902344,3.0750001250000003,-0.01759894561767578
3.08,0.03612059020996094,3.080000125,-0.0015657424926757812
3.085,0.03412083435058594,3.085000125,-0.006576118469238281
3.09,0.03612059020996094,3.090000125,-0.01960309600830078
3.095,0.03412083435058594,3.0950001250000003,0.0014404830932617187
3.1,0.03912022399902344,3.100000125,0.005448783874511719
3.105,0.03212107849121094,3.105000125,-0.012588569641113281
3.11,0.03112120056152344,3.110000125,-0.01359064483642578
3.115,0.03712046813964844,3.1150001250000003,-0.004571968078613281
3.12,0.03912022399902344,3.1200001250000002,-0.01659687042236328
3.125,0.03412083435058594,3.125000125,-0.007578193664550781
3.13,0.03712046813964844,3.130000125,-0.002567817687988281
3.1350000000000002,0.03712046813964844,3.1350001250000004,0.003444633483886719
3.14,0.03712046813964844,3.1400001250000003,0.0014404830932617187
3.145,0.03512071228027344,3.145000125,0.003444633483886719
3.15,0.03112120056152344,3.150000125,0.009457084655761719
3.1550000000000002,0.03812034606933594,3.1550001250000004,0.0014404830932617187
3.16,0.03912022399902344,3.1600001250000003,0.003444633483886719
3.165,0.03712046813964844,3.165000125,0.017473686218261716
3.17,0.03912022399902344,3.170000125,0.013465385437011718
3.1750000000000003,0.03612059020996094,3.1750001250000004,0.011461235046386718
3.18,0.03312095642089844,3.1800001250000003,0.04152349090576172
3.185,0.043119735717773444,3.185000125,0.048538017272949215
3.19,0.03912022399902344,3.190000125,0.049540092468261715
3.1950000000000003,0.03212107849121094,3.1950001250000004,0.06757744598388672
3.2,0.03712046813964844,3.2000001250000003,0.07058367156982422
3.205,0.03512071228027344,3.205000125,0.06356914520263672
3.21,0.03612059020996094,3.210000125,0.06757744598388672
3.215,0.03412083435058594,3.215000125,0.08361064910888671
3.22,0.03612059020996094,3.2200001250000003,0.07659612274169922
3.225,0.03812034606933594,3.225000125,0.07258782196044922
3.23,0.03112120056152344,3.230000125,0.07358989715576171
3.235,0.03712046813964844,3.235000125,0.06657537078857421
3.24,0.03712046813964844,3.2400001250000003,0.04352764129638672
3.245,0.03312095642089844,3.2450001250000002,0.031502738952636715
3.25,0.03512071228027344,3.250000125,0.020479911804199218
3.255,0.03612059020996094,3.255000125,-0.01559479522705078
3.2600000000000002,0.03012132263183594,3.2600001250000004,-0.03663837432861328
3.265,0.03712046813964844,3.2650001250000003,-0.05066742706298828
3.27,0.03812034606933594,3.270000125,-0.08674213409423828
3.275,0.03712046813964844,3.275000125,-0.10477948760986328
3.2800000000000002,0.03812034606933594,3.2800001250000004,-0.10477948760986328
3.285,0.03412083435058594,3.2850001250000003,-0.11480023956298828
3.29,0.04211985778808594,3.290000125,-0.13383966827392577
3.295,0.03112120056152344,3.295000125,-0.1328375930786133
3.3000000000000003,0.03112120056152344,3.3000001250000004,-0.12882929229736328
3.305,0.03412083435058594,3.3050001250000003,-0.14085419464111326
3.31,0.03412083435058594,3.310000125,-0.13584381866455078
3.315,0.03112120056152344,3.315000125,-0.12181476593017578
3.3200000000000003,0.03212107849121094,3.3200001250000004,-0.13484174346923827
3.325,0.03712046813964844,3.3250001250000003,-0.12782721710205078
3.33,0.03812034606933594,3.330000125,-0.11379816436767577
3.335,0.03712046813964844,3.335000125,-0.11580231475830077
3.34,0.03612059020996094,3.340000125,-0.11379816436767577
3.345,0.03612059020996094,3.3450001250000003,-0.10678363800048828
3.35,0.03712046813964844,3.350000125,-0.10177326202392578
3.355,0.03012132263183594,3.355000125,-0.11079193878173828
3.36,0.03512071228027344,3.360000125,-0.10578156280517578
3.365,0.03112120056152344,3.3650001250000003,-0.09175251007080078
3.37,0.03412083435058594,3.3700001250000002,-0.09075043487548828
3.375,0.03512071228027344,3.375000125,-0.09175251007080078
3.38,0.03712046813964844,3.380000125,-0.07672138214111328
3.3850000000000002,0.03812034606933594,3.3850001250000004,-0.07872553253173828
3.39,0.03012132263183594,3.3900001250000003,-0.08874628448486328
3.395,0.03712046813964844,3.395000125,-0.08072968292236328
3.4,0.03512071228027344,3.400000125,-0.07371515655517578
3.4050000000000002,0.03212107849121094,3.4050001250000004,-0.08674213409423828
3.41,0.03412083435058594,3.4100001250000003,-0.07872553253173828
3.415,0.041119979858398444,3.415000125,-0.06770270538330078
3.42,0.03312095642089844,3.420000125,-0.07571930694580077
3.4250000000000003,0.03512071228027344,3.4250001250000004,-0.07972760772705077
3.43,0.03612059020996094,3.4300001250000003,-0.07070893096923828
3.435,0.03812034606933594,3.435000125,-0.06970685577392578
3.44,0.043119735717773444,3.440000125,-0.07772345733642577
3.4450000000000003,0.03612059020996094,3.4450001250000004,-0.07471723175048828
3.45,0.03312095642089844,3.4500001250000003,-0.07271308135986328
3.455,0.02812156677246094,3.455000125,-0.08173175811767577
3.46,0.03112120056152344,3.460000125,-0.07571930694580077
3.465,0.03612059020996094,3.465000125,-0.07371515655517578
3.47,0.03712046813964844,3.4700001250000003,-0.07271308135986328
3.475,0.03312095642089844,3.475000125,-0.06870478057861328
3.48,0.03712046813964844,3.480000125,-0.05968610382080078
3.485,0.03312095642089844,3.485000125,-0.06870478057861328
3.49,0.03012132263183594,3.4900001250000003,-0.07070893096923828
3.495,0.03312095642089844,3.4950001250000002,-0.07371515655517578
3.5,0.03312095642089844,3.500000125,-0.06269232940673827
3.505,0.03512071228027344,3.505000125,-0.06369440460205078
3.5100000000000002,0.03312095642089844,3.5100001250000004,-0.06670063018798827
3.515,0.03912022399902344,3.5150001250000003,-0.053673652648925776
3.52,0.03312095642089844,3.520000125,-0.05567780303955078
3.525,0.03212107849121094,3.525000125,-0.05768195343017578
3.5300000000000002,0.03512071228027344,3.5300001250000004,-0.04966535186767578
3.535,0.03112120056152344,3.5350001250000003,-0.05567780303955078
3.54,0.03212107849121094,3.540000125,-0.06269232940673827
3.545,0.03312095642089844,3.545000125,-0.05768195343017578
3.5500000000000003,0.04012010192871094,3.5500001250000004,-0.05768195343017578
3.555,0.03912022399902344,3.5550001250000003,-0.07171100616455078
3.56,0.03612059020996094,3.560000125,-0.07271308135986328
3.565,0.03612059020996094,3.565000125,-0.06269232940673827
3.5700000000000003,0.03612059020996094,3.5700001250000004,-0.06569855499267578
3.575,0.03712046813964844,3.5750001250000003,-0.06870478057861328
3.58,0.03512071228027344,3.580000125,-0.05968610382080078
3.585,0.03812034606933594,3.585000125,-0.05968610382080078
3.59,0.03212107849121094,3.590000125,-0.06670063018798827
3.595,0.03012132263183594,3.5950001250000003,-0.06569855499267578
3.6,0.03312095642089844,3.600000125,-0.05667987823486328
3.605,0.03412083435058594,3.605000125,-0.06770270538330078
3.61,0.03112120056152344,3.610000125,-0.06369440460205078
3.615,0.03312095642089844,3.6150001250000003,-0.053673652648925776
3.62,0.03712046813964844,3.6200001250000002,-0.05567780303955078
3.625,0.02912144470214844,3.625000125,-0.06269232940673827
3.63,0.03012132263183594,3.630000125,-0.053673652648925776
3.6350000000000002,0.03412083435058594,3.6350001250000004,-0.05467572784423828
3.64,0.03512071228027344,3.6400001250000003,-0.06670063018798827
3.645,0.03212107849121094,3.645000125,-0.06469647979736327
3.65,0.03412083435058594,3.650000125,-0.06068817901611328
3.6550000000000002,0.03612059020996094,3.6550001250000004,-0.06670063018798827
3.66,0.03812034606933594,3.6600001250000003,-0.06169025421142578
3.665,0.03712046813964844,3.665000125,-0.04365290069580078
3.67,0.03312095642089844,3.670000125,-0.05667987823486328
3.6750000000000003,0.03412083435058594,3.6750001250000004,-0.05968610382080078
3.68,0.03912022399902344,3.6800001250000003,-0.05066742706298828
3.685,0.03612059020996094,3.685000125,-0.06269232940673827
3.69,0.03212107849121094,3.690000125,-0.07171100616455078
3.6950000000000003,0.02912144470214844,3.6950001250000004,-0.05868402862548828
3.7,0.03612059020996094,3.7000001250000003,-0.05868402862548828
3.705,0.03012132263183594,3.705000125,-0.06670063018798827
3.71,0.03612059020996094,3.710000125,-0.06469647979736327
3.715,0.03512071228027344,3.715000125,-0.053673652648925776
3.72,0.03112120056152344,3.7200001250000003,-0.05868402862548828
3.725,0.03512071228027344,3.725000125,-0.05467572784423828
3.73,0.03012132263183594,3.730000125,-0.04966535186767578
3.735,0.03112120056152344,3.735000125,-0.04265082550048828
3.74,0.03712046813964844,3.7400001250000003,-0.04565705108642578
3.745,0.03312095642089844,3.7450001250000002,-0.04265082550048828
